"Physical Time (s)","Fill Efficiency Monitor: Fill Efficiency Monitor"
0.02,0.009800617437111029
0.04,0.009800606355039522
0.06,0.009800660194871143
0.08,0.009800773056740923
0.1,0.009800958687813813
0.2,0.009804803581775807
0.30000000000000004,0.009813347488189518
0.4,0.009828154963634777
0.5,0.009850435914713025
1.0,0.010232648030727333
1.5,0.010979933090768765
1.625,0.011188103883443285
1.75,0.011421426205236705
1.875,0.01168111465094321
2.0,0.011967532156996648
2.125,0.012280485853008139
2.25,0.012619016507208756
2.375,0.012981392878918686
2.5,0.013366868845189997
2.625,0.013774861368722436
2.75,0.014204514485667539
2.875,0.014653942054780102
2.9,0.014743549463021961
3.0,0.015114837691717268
3.1,0.015496462287783995
3.2,0.01588674484702106
3.3000000000000003,0.016284894177847252
3.4000000000000004,0.01669253064018968
3.5000000000000004,0.017109930918587635
3.6000000000000005,0.017536403090201234
3.7000000000000006,0.017971392815626583
3.8000000000000007,0.018414344576270704
3.900000000000001,0.018864612474179112
4.000000000000001,0.019322252060641792
4.050000000000001,0.019552693072557376
4.1000000000000005,0.019784156665725132
4.2,0.02025240561251421
4.3,0.020724397875351595
4.3999999999999995,0.02119909846165879
4.499999999999999,0.02167706134901679
4.599999999999999,0.02215716244183204
4.699999999999998,0.022639236136608974
4.799999999999998,0.023123660097776298
4.899999999999998,0.0236101055207563
4.999999999999997,0.02409801721960252
5.099999999999997,0.024586198986441748
5.199999999999997,0.02507409657684985
5.299999999999996,0.02556153704297995
5.399999999999996,0.0260474514942775
5.449999999999996,0.026289626553675737
5.499999999999996,0.026530998662901737
5.549999999999995,0.026771484330447258
5.599999999999995,0.027011157969884878
5.699999999999995,0.027487545782350797
5.749999999999995,0.02772482861570128
5.7999999999999945,0.027961200827023157
5.899999999999994,0.028430769830221705
5.949999999999994,0.028664340456354864
5.999999999999994,0.028896738391758842
6.099999999999993,0.029357618031539072
6.149999999999993,0.02958690003041766
6.199999999999993,0.02981514618946692
6.299999999999993,0.030268644585037658
6.3499999999999925,0.030494210451026352
6.399999999999992,0.03071877637203757
6.499999999999992,0.03116518348616317
6.599999999999992,0.031607934187183384
6.699999999999991,0.03204653319152949
6.799999999999991,0.032481192544239326
6.899999999999991,0.03291157770402166
6.99999999999999,0.03333796421376932
7.09999999999999,0.0337605577976602
7.1999999999999895,0.03417936812837619
7.299999999999989,0.03459455276049879
7.399999999999989,0.03500628268253455
7.4999999999999885,0.03541459232657044
7.599999999999988,0.035819277993086235
7.699999999999988,0.03622076909147157
7.799999999999987,0.03661929894364327
7.899999999999987,0.03701515220784467
7.999999999999987,0.0374084659534277
8.099999999999987,0.03779933067974031
8.199999999999987,0.03818789928989532
8.299999999999986,0.03857425726973091
8.399999999999986,0.03895849895196693
8.499999999999986,0.039340690102410696
8.599999999999985,0.039720731668841894
8.699999999999985,0.040098569672107454
8.799999999999985,0.04047407654483572
8.899999999999984,0.04084709389434173
8.999999999999984,0.04121760851653597
9.099999999999984,0.04158574081781296
9.199999999999983,0.04195136341703406
9.299999999999983,0.04231465590325454
9.399999999999983,0.04267588711640764
9.499999999999982,0.04303500078763387
9.749999999999982,0.04392058329636799
9.999999999999982,0.04479439215757986
10.499999999999982,0.046495151053232375
10.999999999999982,0.04815030121339198
11.499999999999982,0.04976297986239847
11.999999999999982,0.05133913316992667
12.499999999999982,0.052883224239951745
12.999999999999982,0.054396239222430656
13.499999999999982,0.055878946851878525
13.999999999999982,0.057334033220583135
14.499999999999982,0.05876680975573463
14.999999999999982,0.060174021666143045
15.499999999999982,0.06156104360530902
15.999999999999982,0.06293172865356561
16.499999999999982,0.06428430563566892
16.999999999999982,0.065617912391383
17.499999999999982,0.06693425299778341
17.999999999999982,0.06823241632908021
18.499999999999982,0.06951323808686659
18.749999999999982,0.07015015774200783
18.999999999999982,0.0707839058629892
19.249999999999982,0.07141385745646045
19.499999999999982,0.07204092150717285
19.749999999999982,0.07266503334828031
19.999999999999982,0.07328633205700509
20.249999999999982,0.07390473116060907
20.499999999999982,0.07452036034321395
20.749999999999982,0.07513297275007097
20.999999999999982,0.0757429550651093
21.249999999999982,0.07635038085507302
21.499999999999982,0.07695436370087473
21.749999999999982,0.0775551715329553
21.999999999999982,0.07815284401352689
22.249999999999982,0.07874851189691089
22.499999999999982,0.07934080655527317
22.749999999999982,0.07992912842274105
22.999999999999982,0.08051389711270102
23.249999999999982,0.08109567553937301
23.499999999999982,0.0816744995762936
23.749999999999982,0.0822500556771755
23.999999999999982,0.08282287301338002
24.249999999999982,0.08339346640482985
24.499999999999982,0.08396189740323028
24.749999999999982,0.08452775211705275
24.999999999999982,0.08509089576772506
25.249999999999982,0.08565208993160146
25.499999999999982,0.08621137285683232
25.749999999999982,0.0867684348025008
25.999999999999982,0.08732280473577153
26.249999999999982,0.08787438161892645
26.499999999999982,0.08842374331573295
26.749999999999982,0.08897085221329319
26.999999999999982,0.08951526262629608
27.249999999999982,0.09005673803215425
27.499999999999982,0.09059563248347043
27.749999999999982,0.09113224534930404
27.999999999999982,0.09166636691038825
28.249999999999982,0.09219768443854393
28.499999999999982,0.09272707105234725
28.749999999999982,0.09325487889856812
28.999999999999982,0.09378085598566874
29.249999999999982,0.09430391720153779
29.499999999999982,0.09482478523826192
29.749999999999982,0.09534408853945556
29.999999999999982,0.095862070364095
30.249999999999982,0.09637795893861341
30.499999999999982,0.09689205661386753
30.749999999999982,0.0974046549590522
30.999999999999982,0.09791522246193367
31.249999999999982,0.09842299349404637
31.499999999999982,0.09892891153341239
31.749999999999982,0.09943303010687075
31.999999999999982,0.09993531033019841
32.249999999999986,0.10043568522174565
32.499999999999986,0.10093414824817562
32.749999999999986,0.10143047083767152
32.999999999999986,0.10192481669442251
33.249999999999986,0.10241744091636461
33.499999999999986,0.10290857649569585
33.749999999999986,0.10339810784561475
33.999999999999986,0.10388582364869715
34.249999999999986,0.10437164817582886
34.499999999999986,0.10485620979346982
34.749999999999986,0.10533956322021282
34.999999999999986,0.10582159431253858
35.249999999999986,0.10630245476039968
35.499999999999986,0.10678188376489842
35.749999999999986,0.10725998735269811
35.999999999999986,0.10773695691789323
36.249999999999986,0.10821263433543919
36.499999999999986,0.1086869896082037
36.749999999999986,0.10916011824737021
36.999999999999986,0.10963214993972693
37.249999999999986,0.11010301925986062
37.499999999999986,0.11057260214638082
37.749999999999986,0.11104109670830711
37.999999999999986,0.1115079661577624
38.249999999999986,0.11197327318757283
38.499999999999986,0.11243706422582854
38.749999999999986,0.11289905828820282
38.999999999999986,0.1133594147070676
39.249999999999986,0.11381833085224782
39.499999999999986,0.11427601714968368
39.749999999999986,0.11473235197226343
39.999999999999986,0.11518733423049503
40.249999999999986,0.11564089414173463
40.499999999999986,0.11609305016954438
40.749999999999986,0.1165439277052163
40.999999999999986,0.11699371388584104
41.249999999999986,0.11744223251873627
41.499999999999986,0.11788969867428467
41.749999999999986,0.11833620423989866
41.999999999999986,0.11878170261963653
42.249999999999986,0.119226189180804
42.499999999999986,0.11966966561245064
42.749999999999986,0.12011225247360781
42.999999999999986,0.1205536918061031
43.249999999999986,0.1209941570314953
43.499999999999986,0.12143374788122958
43.749999999999986,0.12187226428382558
43.999999999999986,0.12230958233437109
44.249999999999986,0.12274596674879258
44.499999999999986,0.12318134289691564
44.749999999999986,0.12361571336154635
44.999999999999986,0.12404954689358502
45.249999999999986,0.12448249995222611
45.499999999999986,0.1249144788609585
45.749999999999986,0.12534543501238593
45.999999999999986,0.12577547132907835
46.249999999999986,0.12620457599485854
46.499999999999986,0.12663278689068633
46.999999999999986,0.12748496930481348
47.499999999999986,0.12833262788609212
47.999999999999986,0.1291747152518029
48.499999999999986,0.13001237798711232
48.999999999999986,0.13084624902500616
49.499999999999986,0.1316764187330035
49.999999999999986,0.13250343272817372
50.499999999999986,0.13332738433126948
50.999999999999986,0.13414829250943555
51.499999999999986,0.13496606152768253
51.999999999999986,0.13578035707353284
52.499999999999986,0.13659078097012045
52.999999999999986,0.13739720958055665
53.499999999999986,0.13820117642770588
53.999999999999986,0.13900237152422631
54.499999999999986,0.13980120485356076
54.999999999999986,0.1405975674788524
55.499999999999986,0.1413912497660984
55.999999999999986,0.1421823565633087
56.499999999999986,0.14297100664280135
56.999999999999986,0.14375612702847868
57.499999999999986,0.144538139385422
57.999999999999986,0.14531710460315952
58.499999999999986,0.14609379322975738
58.999999999999986,0.14686732427722218
59.499999999999986,0.14763828802475357
59.999999999999986,0.14840638807720888
60.499999999999986,0.1491716098881459
60.999999999999986,0.14993379979323984
61.499999999999986,0.15069250004543713
61.999999999999986,0.15144870741266475
62.499999999999986,0.15220310167233517
62.999999999999986,0.15295593028248822
63.499999999999986,0.153706950224969
63.999999999999986,0.15445526934231557
64.49999999999999,0.15520149226878174
64.99999999999999,0.1559455152812418
65.49999999999999,0.15668762098307587
65.99999999999999,0.15742739715026077
66.49999999999999,0.15816491041261982
66.99999999999999,0.15889973374711436
67.49999999999999,0.1596323913673511
67.99999999999999,0.16036328050171295
68.49999999999999,0.1610915746011965
68.99999999999999,0.16181810343373473
69.49999999999999,0.16254239880102314
69.99999999999999,0.1632642900385569
70.49999999999999,0.1639829801500436
70.99999999999999,0.16469953417381394
71.49999999999999,0.1654141911335362
71.99999999999999,0.16612728709829036
72.49999999999999,0.16683888549905715
72.99999999999999,0.1675482623468658
73.49999999999999,0.1682558921428125
73.99999999999999,0.16896161587129538
74.49999999999999,0.16966600936629989
74.99999999999999,0.17036847253528956
75.49999999999999,0.17106935790370317
75.99999999999999,0.17176858437127787
76.49999999999999,0.1724665740486081
76.99999999999999,0.17316260792347385
77.49999999999999,0.17385729777100511
77.99999999999999,0.1745501739522366
78.49999999999999,0.1752415691071645
78.99999999999999,0.1759316480464029
79.49999999999999,0.17662039087963846
79.99999999999999,0.17730740534321074
80.49999999999999,0.17799318775770068
80.99999999999999,0.17867679346780713
81.49999999999999,0.17935844813590782
81.99999999999999,0.180037965075869
82.49999999999999,0.18071577540934208
82.99999999999999,0.1813920425001407
83.49999999999999,0.18206674479234583
83.99999999999999,0.18274027243325633
84.49999999999999,0.18341239024776965
84.99999999999999,0.1840831499462526
85.49999999999999,0.1847530417810936
85.99999999999999,0.18542209888533928
86.49999999999999,0.18608966563607687
86.99999999999999,0.18675604266539977
87.49999999999999,0.18742077981648853
87.99999999999999,0.18808445674679256
88.49999999999999,0.18874683686324523
88.99999999999999,0.1894081525972874
89.49999999999999,0.19006861772269962
89.99999999999999,0.19072772784383712
90.49999999999999,0.1913856165553265
90.99999999999999,0.19204195166011973
91.49999999999999,0.1926970878099665
91.99999999999999,0.1933503378318298
92.49999999999999,0.19400254323106
92.99999999999999,0.19465279086275872
93.49999999999999,0.1953014721664928
93.99999999999999,0.19594867964526966
94.49999999999999,0.19659479621203615
94.99999999999999,0.19723977645868093
95.49999999999999,0.1978837703593431
95.99999999999999,0.19852630358989654
96.49999999999999,0.19916774037922483
96.99999999999999,0.19980810822833822
97.49999999999999,0.20044733172737134
97.99999999999999,0.20108540541596198
98.49999999999999,0.20172222192793807
98.99999999999999,0.20235776452036078
99.49999999999999,0.20299188589207529
99.99999999999999,0.20362429430204496
100.49999999999999,0.2042554368203808
100.99999999999999,0.2048852749065268
101.49999999999999,0.2055140318063405
101.99999999999999,0.2061415158822413
102.49999999999999,0.20676780206942136
102.99999999999999,0.20739287645227936
103.49999999999999,0.20801670124399077
103.99999999999999,0.20863928261267442
104.49999999999999,0.20926044950180667
104.99999999999999,0.2098800982826557
105.49999999999999,0.21049769679145675
105.99999999999999,0.2111136804744609
106.49999999999999,0.21172820644627266
106.99999999999999,0.21234160743673025
107.49999999999999,0.212953930916539
107.99999999999999,0.21356498103071656
108.49999999999999,0.21417430700597279
108.99999999999999,0.21478253983691914
109.49999999999999,0.2153889789927496
109.99999999999999,0.21599379559690546
110.49999999999999,0.2165972435931809
110.99999999999999,0.2171997387959905
111.49999999999999,0.21780066355825065
111.99999999999999,0.21840003440611896
112.49999999999999,0.2189981371295003
112.99999999999999,0.2195943859277456
113.49999999999999,0.22018854202225868
113.99999999999999,0.22078182294892654
114.49999999999999,0.22137358167741014
114.99999999999999,0.22196386139047278
115.49999999999999,0.22255289888133067
115.99999999999999,0.22314068442521426
116.49999999999999,0.223727114117023
116.99999999999999,0.22431207297172082
117.49999999999999,0.22489594993803838
117.99999999999999,0.22547831368797236
118.49999999999999,0.22605934608609254
118.99999999999999,0.22663912693273472
119.49999999999999,0.22721687925378306
119.99999999999999,0.22779339678618404
120.49999999999999,0.2283687586680968
120.99999999999999,0.2289430012314606
121.49999999999999,0.22951616767808708
121.99999999999999,0.23008821555545259
122.49999999999999,0.23065946414946267
122.99999999999999,0.23122944228870643
123.49999999999999,0.23179853370928685
123.99999999999999,0.2323666337227098
124.49999999999999,0.23293340183884584
124.99999999999999,0.23349888400652066
125.49999999999999,0.23406358674803943
125.99999999999999,0.2346273562735483
126.49999999999999,0.23518974931534414
126.99999999999999,0.23575091075676183
127.49999999999999,0.2363110830887237
127.99999999999999,0.23686995861052446
128.5,0.23742761636252313
129.0,0.23798447995280625
129.5,0.23854028944479802
130.0,0.23909464610943396
130.5,0.23964785851145012
131.0,0.24019996476702085
131.5,0.24075139366148948
132.0,0.2413012923113108
132.5,0.2418502707617259
133.0,0.24239806414580486
133.5,0.24294468993095825
134.0,0.2434902034322126
134.5,0.2440345768353969
135.0,0.24457817421264133
135.5,0.2451208220095127
136.0,0.24566251070665587
136.5,0.24620327537488507
137.0,0.246742951316625
137.5,0.24728178552008392
138.0,0.2478196054019885
138.5,0.2483569638066495
139.0,0.24889293518020508
139.5,0.24942785333363926
140.0,0.2499616620770715
140.5,0.2504943954815254
141.0,0.2510262274105608
141.5,0.2515573849900178
142.0,0.25208755577615205
142.5,0.2526169806518482
143.0,0.2531458153296692
143.5,0.253673951076851
144.0,0.25420095824582667
144.5,0.25472753601456094
145.0,0.2552535020881026
145.5,0.2557788819949546
146.0,0.25630352614845964
146.5,0.25682748092803465
147.0,0.25735054601027096
147.5,0.257872672553491
148.0,0.25839381310579296
148.5,0.2589140830164695
149.0,0.25943348043103237
149.5,0.25995199987341483
150.0,0.26046944998091365
150.5,0.26098598595863914
151.0,0.26150177554704324
151.5,0.2620169456576494
152.0,0.2625311802139492
152.5,0.26304430443672616
153.0,0.26355659107743634
153.5,0.2640681385689369
154.0,0.2645790755365905
154.5,0.26508935562208125
155.0,0.26559880296427546
155.5,0.26610752390483
156.0,0.266615638125922
156.5,0.2671231409777022
157.0,0.267630130726377
157.5,0.2681365479184345
158.0,0.268642240092533
158.5,0.2691473209006904
159.0,0.2696520267369487
159.5,0.27015606588732666
160.0,0.2706594307421284
160.5,0.27116206483942673
161.0,0.27166441939216773
161.5,0.2721660051138546
162.0,0.2726671668208951
162.5,0.2731679353094697
163.0,0.2736681614048958
163.5,0.27416765803142285
164.0,0.274666429782486
164.5,0.275164552413577
165.0,0.27566203137552586
165.5,0.27615882875426545
166.0,0.2766549611314588
166.5,0.2771503731597416
167.0,0.2776453113846814
167.5,0.27813969116217274
168.0,0.2786336168756354
168.5,0.27912726144918737
169.0,0.2796204763580934
169.5,0.28011311239938197
170.0,0.28060517304845767
170.5,0.28109658593947
171.0,0.2815874104466755
171.5,0.28207764088944454
172.0,0.28256720035215477
172.5,0.28305609750341615
173.0,0.28354428781800844
173.5,0.2840319617820824
174.0,0.28451875888796724
174.5,0.28500452609583693
175.0,0.28548952378177006
175.5,0.2859741516083851
176.0,0.2864584005698962
176.5,0.286941762485962
177.0,0.28742431818749187
177.5,0.2879063095591998
178.0,0.28838774565917186
178.5,0.2888684897637233
179.0,0.28934848793378193
179.5,0.2898279722062858
180.0,0.29030676499397384
180.5,0.29078491731144024
181.0,0.29126234485388647
181.5,0.291739146574571
182.0,0.29221539574879657
182.5,0.2926909387954879
183.0,0.293165805062545
183.5,0.2936397477080218
184.0,0.2941128761126303
184.5,0.29458541693284124
185.0,0.2950574390707463
185.5,0.29552899887014394
186.0,0.29599990602651544
186.5,0.29647023129589417
187.0,0.2969401699450385
187.5,0.29740967548672964
188.0,0.2978787572691606
188.5,0.29834728790353016
189.0,0.2988151992925728
189.5,0.29928270975524507
190.0,0.2997497194423987
190.5,0.30021591622361105
191.0,0.30068137518683064
191.5,0.3011463096628055
192.0,0.30161085456984454
192.5,0.3020747227514709
193.0,0.3025383094365375
193.5,0.30300157397690036
194.0,0.30346427384488184
194.5,0.30392675202130565
195.0,0.30438917202851806
195.5,0.3048511491353115
196.0,0.30531282963967155
196.5,0.3057739783389489
197.0,0.3062348628327842
197.5,0.3066954035321533
198.0,0.3071555149307765
198.5,0.30761510326271224
199.0,0.3080742125854923
199.5,0.308532783413748
200.0,0.30899058340900964
200.5,0.3094480598353875
201.0,0.309905253266402
201.5,0.310361870572632
202.0,0.3108180684190845
202.5,0.311273751458952
203.0,0.31172897150063217
203.5,0.3121836740721475
204.0,0.3126375597979566
204.5,0.31309079217471364
205.0,0.31354338246670327
205.5,0.3139952373692288
206.0,0.3144464294712495
206.5,0.3148971056821144
207.0,0.31534701172811846
207.5,0.3157962925100903
208.0,0.3162450399711982
208.5,0.316693265701711
209.0,0.3171408439544566
209.5,0.3175878869645747
210.0,0.31803429495581415
210.5,0.318479966974159
211.0,0.3189246246979929
211.5,0.3193686969057145
212.0,0.3198123782831477
212.5,0.3202556607135094
213.0,0.3206985946729298
213.5,0.32114112910798964
214.0,0.32158316245066476
214.5,0.3220246541711224
215.0,0.3224655459992686
215.5,0.3229060278504595
216.0,0.32334595378680897
216.5,0.3237854383084482
217.0,0.32422439002604453
217.5,0.32466273249250954
218.0,0.32510048849827644
218.5,0.32553789868609184
219.0,0.325974910190816
219.5,0.3264113792352456
220.0,0.3268472208351898
