"Physical Time (s)","Fill Efficiency Monitor: Fill Efficiency Monitor"
0.02,0.009795153260390238
0.04,0.009795139630688713
0.06,0.009795190250992653
0.08,0.009795299156066353
0.1,0.009795481131437576
0.2,0.009799275091539396
0.30000000000000004,0.009807708238734758
0.4,0.00982228092948297
0.5,0.00984429071639319
1.0,0.01022356714426882
1.5,0.010962826833887945
1.75,0.011430152064853824
1.875,0.011687428784823544
2.0,0.011970949945773222
2.125,0.012280603606755591
2.25,0.012615517627696173
2.375,0.012974481259075792
2.5,0.01335670183779763
2.625,0.013761046262160096
2.75,0.014187356058456595
2.875,0.014633707521870933
3.0,0.01509689923801791
3.125,0.015575840636851922
3.25,0.016069743306685487
3.375,0.01657879165758809
3.5,0.017100392749124504
3.625,0.017634911370671486
3.65,0.01774196353504205
3.6999999999999997,0.017958028609289387
3.8,0.01839864606362559
3.9,0.01884691449301348
4.0,0.019301678145212366
4.1,0.019762440060953974
4.199999999999999,0.02022845727618662
4.299999999999999,0.02069967893264236
4.399999999999999,0.021174911900136435
4.499999999999998,0.021652933246505246
4.599999999999998,0.0221328859779011
4.6999999999999975,0.022614514513756085
4.799999999999997,0.0230979053300342
4.899999999999997,0.02358295891734296
4.9999999999999964,0.02406884889623256
5.099999999999996,0.024554906208998976
5.199999999999996,0.02504080742600194
5.299999999999995,0.025526090055744164
5.399999999999995,0.026010749501009872
5.499999999999995,0.026493259716232974
5.599999999999994,0.026971869194136716
5.649999999999994,0.02720979096012365
5.699999999999994,0.02744663989128198
5.799999999999994,0.027917368188858045
5.849999999999993,0.02815156142183266
5.899999999999993,0.028384641040733183
5.999999999999993,0.028846908881637923
6.049999999999993,0.029076800579359973
6.0999999999999925,0.029305557640138195
6.199999999999992,0.029759335458602675
6.249999999999992,0.029985107693373377
6.299999999999992,0.030209844700316662
6.3999999999999915,0.030655740906988006
6.499999999999991,0.03109828689663981
6.599999999999991,0.031537625482079626
6.69999999999999,0.031973557007929795
6.79999999999999,0.03240600028496625
6.89999999999999,0.03283425393821001
6.999999999999989,0.033258496984451894
7.099999999999989,0.033678776796070634
7.199999999999989,0.03409512356021243
7.299999999999988,0.03450772084556524
7.399999999999988,0.034916943213353896
7.499999999999988,0.035322764375468725
7.624999999999988,0.03582502602959084
7.749999999999988,0.03632205223005212
7.874999999999988,0.03681461287418585
7.999999999999988,0.03730306676411142
8.124999999999988,0.037787870266899955
8.249999999999988,0.03826914760640443
8.374999999999988,0.03874706535864285
8.499999999999988,0.03922210831270496
8.624999999999988,0.03969399678552488
8.749999999999988,0.04016257366629907
8.874999999999988,0.04062776441405815
8.999999999999988,0.04108920690020587
9.124999999999988,0.04154673024222728
9.249999999999988,0.042000395753585974
9.499999999999988,0.042894215763161415
9.749999999999988,0.04377564730083574
9.999999999999988,0.04464534060369442
10.249999999999988,0.04550376461647785
10.499999999999988,0.04635138471140154
10.749999999999988,0.047189628748503076
10.999999999999988,0.04801791753083505
11.249999999999988,0.048835130661043114
11.499999999999988,0.04964090311708494
11.749999999999988,0.05043707959172284
11.999999999999988,0.05122552620819156
12.249999999999988,0.052005925987827314
12.499999999999988,0.05277861071981166
12.749999999999988,0.05354240926017149
12.999999999999988,0.05429860786957205
13.249999999999988,0.055047252197808164
13.499999999999988,0.0557884892577769
13.749999999999988,0.05652204200436579
13.999999999999988,0.057248611092187
14.249999999999988,0.057968781859666085
14.499999999999988,0.05868322128586366
14.749999999999988,0.059391652000282714
14.999999999999988,0.06009392468713611
15.249999999999988,0.06079109417915183
15.499999999999988,0.061483428342295844
15.749999999999988,0.0621712799776441
15.999999999999988,0.06285472303104674
16.249999999999986,0.06353352477215077
16.499999999999986,0.06420779510535203
16.749999999999986,0.06487761008946767
16.999999999999986,0.06554228070133405
17.249999999999986,0.06620193798964341
17.499999999999986,0.06685653190982838
17.749999999999986,0.06750625609615866
17.999999999999986,0.0681519507401594
18.249999999999986,0.06879378072625451
18.499999999999986,0.06943203505540417
18.749999999999986,0.07006721108497244
18.999999999999986,0.07069858108413674
19.249999999999986,0.07132601291953057
19.499999999999986,0.07194986455523956
19.749999999999986,0.07257068379987865
19.999999999999986,0.07318868321033058
20.249999999999986,0.07380392392225785
20.499999999999986,0.07441679915165898
20.749999999999986,0.07502674558536514
20.999999999999986,0.07563375377614164
21.249999999999986,0.07623740005869904
21.499999999999986,0.07683765155215899
21.749999999999986,0.07743445981414301
21.999999999999986,0.07802800423422573
22.249999999999986,0.07861861387721797
22.499999999999986,0.07920650661874969
22.749999999999986,0.07979143143330658
22.999999999999986,0.08037294862566975
23.249999999999986,0.08095163113303852
23.499999999999986,0.08152749402393077
23.749999999999986,0.08210067101150686
23.999999999999986,0.08267126028077508
24.249999999999986,0.08323922522012962
24.499999999999986,0.08380494045536158
24.749999999999986,0.08436868051506285
24.999999999999986,0.08492984102396686
25.249999999999986,0.08548890699386513
25.499999999999986,0.08604580965594405
25.749999999999986,0.08660069521959719
25.999999999999986,0.08715327329938004
26.249999999999986,0.08770283929571102
26.499999999999986,0.08825014909894224
26.749999999999986,0.08879528679802717
26.999999999999986,0.08933822516675895
27.249999999999986,0.08987839296985009
27.499999999999986,0.09041579278780092
27.749999999999986,0.09095087253901774
27.999999999999986,0.0914836715216236
28.249999999999986,0.09201399997780586
28.499999999999986,0.09254193131920364
28.749999999999986,0.09306800618162046
28.999999999999986,0.09359212448602656
29.249999999999986,0.0941139394858489
29.499999999999986,0.09463326524332356
29.749999999999986,0.09515097828743566
29.999999999999986,0.09566690969440064
30.249999999999986,0.09618069958278189
30.499999999999986,0.09669209760301292
30.749999999999986,0.09720160848156079
30.999999999999986,0.09770955662088979
31.249999999999986,0.09821563515486127
31.499999999999986,0.09871967310378708
31.749999999999986,0.09922207506409442
31.999999999999986,0.09972266916694003
32.249999999999986,0.10022166656759675
32.499999999999986,0.10071835419512991
32.749999999999986,0.1012131465538629
32.999999999999986,0.10170637355101206
33.499999999999986,0.10268655968420273
33.999999999999986,0.10365907135462339
34.499999999999986,0.10462402808655473
34.999999999999986,0.10558329467894385
35.499999999999986,0.10653702806990384
35.999999999999986,0.10748679106576163
36.499999999999986,0.10843193033004289
36.999999999999986,0.10937245261762796
37.499999999999986,0.11030874040446915
37.999999999999986,0.11124005366113529
38.499999999999986,0.11216521691277591
38.999999999999986,0.11308338934690115
39.499999999999986,0.11399610066689256
39.999999999999986,0.11490384898857811
40.499999999999986,0.11580582826282373
40.999999999999986,0.11670249532545228
41.499999999999986,0.11759446606393667
41.999999999999986,0.11848211371132442
42.499999999999986,0.1193658894271783
42.999999999999986,0.12024573499714107
43.499999999999986,0.1211217439723891
43.999999999999986,0.12199397584048773
44.499999999999986,0.12286204702486563
44.999999999999986,0.12372611084431742
45.499999999999986,0.12458667077717175
45.999999999999986,0.12544380602590058
46.499999999999986,0.126297345204848
46.999999999999986,0.12714770281233545
47.499999999999986,0.1279940375460504
47.999999999999986,0.1288361608491161
48.499999999999986,0.12967370844127685
48.999999999999986,0.13050686862357783
49.499999999999986,0.13133634940082178
49.999999999999986,0.1321622712208733
50.499999999999986,0.1329848131609447
50.999999999999986,0.133804560351699
51.499999999999986,0.13462134982084345
51.999999999999986,0.13543506204618103
52.499999999999986,0.13624539619085677
52.999999999999986,0.1370520400010363
53.499999999999986,0.137855877264223
53.999999999999986,0.1386570616615481
54.499999999999986,0.13945568151355892
54.999999999999986,0.14025172811012218
55.499999999999986,0.1410451408432864
55.999999999999986,0.1418358653602705
56.499999999999986,0.14262387876805602
56.999999999999986,0.14340829796740356
57.499999999999986,0.14418955742149453
57.999999999999986,0.1449674393190323
58.499999999999986,0.14574205457311168
58.999999999999986,0.14651385317436547
59.499999999999986,0.14728319334335832
59.999999999999986,0.14804994850564096
60.499999999999986,0.14881423499626237
60.999999999999986,0.14957548730632986
61.499999999999986,0.15033382468432172
61.999999999999986,0.15108936682614071
62.499999999999986,0.1518427310902548
62.999999999999986,0.1525943319099123
63.499999999999986,0.15334398282146688
63.999999999999986,0.15409120327380346
64.49999999999999,0.1548359333311297
64.99999999999999,0.15557853113275882
65.49999999999999,0.15631890906130358
65.99999999999999,0.15705662040861149
66.49999999999999,0.15779239070374
66.99999999999999,0.15852567742945897
67.49999999999999,0.15925699458280446
67.99999999999999,0.1599862533360709
68.49999999999999,0.16071334305876875
68.99999999999999,0.16143818312372993
69.49999999999999,0.16216132732850663
69.99999999999999,0.16288202743768215
70.49999999999999,0.16360064411066189
70.99999999999999,0.16431732452571587
71.49999999999999,0.16503200556816452
71.99999999999999,0.1657445661220764
72.49999999999999,0.16645526784942272
72.99999999999999,0.16716412242817935
73.49999999999999,0.16787135454694188
73.99999999999999,0.16857627808073913
74.49999999999999,0.1692795855495453
74.99999999999999,0.16998113888915406
75.49999999999999,0.17068075937147587
75.99999999999999,0.17137882132830562
76.49999999999999,0.17207524517586978
76.99999999999999,0.1727698404729898
77.49999999999999,0.17346290316875063
77.99999999999999,0.17415455856009165
78.49999999999999,0.17484458953811602
78.99999999999999,0.1755331106798835
79.49999999999999,0.17622030931312924
79.99999999999999,0.1769056696429021
80.49999999999999,0.17758931546842413
80.99999999999999,0.17827161058998758
81.49999999999999,0.17895232771919023
81.99999999999999,0.17963118474964193
82.49999999999999,0.18030851144458424
82.99999999999999,0.18098385800360375
83.49999999999999,0.18165851857000662
83.99999999999999,0.18233155100356654
84.49999999999999,0.18300310501634007
84.99999999999999,0.18367338486587523
85.49999999999999,0.1843420797014539
85.99999999999999,0.185009515365826
86.49999999999999,0.18567577332692134
86.99999999999999,0.18634049498772576
87.49999999999999,0.1870036720299455
87.99999999999999,0.18766538551300593
88.49999999999999,0.18832590863979376
88.99999999999999,0.18898575441980178
89.49999999999999,0.18964480353558
89.99999999999999,0.19030259111249645
90.49999999999999,0.19095890602411897
90.99999999999999,0.19161395010690022
91.49999999999999,0.19226778719393012
91.99999999999999,0.1929200543257069
92.49999999999999,0.19357085699307147
92.99999999999999,0.194220296013698
93.49999999999999,0.19486822293451814
93.99999999999999,0.1955148564930312
94.49999999999999,0.19616022996411825
94.99999999999999,0.19680432532553976
95.49999999999999,0.19744713908800055
95.99999999999999,0.19808863076674968
96.49999999999999,0.19872921035385188
96.99999999999999,0.1993684734862229
97.49999999999999,0.2000066801890011
97.99999999999999,0.20064372714076334
98.49999999999999,0.2012801032750784
98.99999999999999,0.20191533973810893
99.49999999999999,0.202548832986112
99.99999999999999,0.2031806443790305
100.49999999999999,0.2038109849024381
100.99999999999999,0.20443994529553816
101.49999999999999,0.2050679531361532
101.99999999999999,0.20569458099768534
102.49999999999999,0.20631994366721962
102.99999999999999,0.20694416603386945
103.49999999999999,0.20756703288214823
103.99999999999999,0.20818864215289123
104.49999999999999,0.2088090100742917
104.99999999999999,0.20942809263162243
105.49999999999999,0.21004550709845204
105.99999999999999,0.2106610493492882
106.49999999999999,0.21127481376147064
106.99999999999999,0.21188713427952496
107.49999999999999,0.21249858749648248
107.99999999999999,0.2131086699519388
108.49999999999999,0.2137171866532342
108.99999999999999,0.214324063800841
109.49999999999999,0.21492946842022648
109.99999999999999,0.21553361146247652
110.49999999999999,0.2161363314346474
110.99999999999999,0.21673755779914042
111.49999999999999,0.21733754420104068
111.99999999999999,0.21793621052079545
112.49999999999999,0.21853358997366343
112.99999999999999,0.21912946476705755
113.49999999999999,0.21972378697738368
113.99999999999999,0.22031668752676162
114.49999999999999,0.22090838337295896
114.99999999999999,0.22149874607450168
115.49999999999999,0.22208780456402752
115.99999999999999,0.2226757091307511
116.49999999999999,0.22326239116000296
116.99999999999999,0.22384775182855074
117.49999999999999,0.2244316775634254
117.99999999999999,0.22501415989061443
118.49999999999999,0.22559516689447762
118.99999999999999,0.22617462662661736
119.49999999999999,0.2267526263413582
119.99999999999999,0.22732941764887282
120.49999999999999,0.2279048940072717
120.99999999999999,0.22847897803931194
121.99999999999999,0.22961915719048545
122.99999999999999,0.23075367547680767
123.99999999999999,0.23188314013959438
124.99999999999999,0.23300693937707623
125.99999999999999,0.23412533181967407
126.99999999999999,0.23523939847012101
127.99999999999999,0.2363485658123681
129.0,0.23745427037194758
130.0,0.23855656183519386
131.0,0.23965395298594253
132.0,0.24074733092823575
133.0,0.24183574734479807
134.0,0.24292017162810114
135.0,0.24400095101044572
136.0,0.2450781532623723
137.0,0.24615096160166905
138.0,0.24722006021134293
139.0,0.24828531986259103
140.0,0.2493470369150149
141.0,0.25040488565806424
142.0,0.2514595822794876
143.0,0.2525107151048576
144.0,0.25355890250540053
145.0,0.25460374316616197
146.0,0.25564493363471746
147.0,0.25668250026605194
148.0,0.2577164174606721
149.0,0.2587472588153748
150.0,0.25977524780960626
151.0,0.26080015769816073
152.0,0.2618226574227228
153.0,0.2628418156165644
154.0,0.26385705822525934
155.0,0.2648700675517551
156.0,0.26587989558975833
157.0,0.26688714302885885
158.0,0.2678921769322879
159.0,0.26889469079391
160.0,0.2698944399386237
161.0,0.27089236703764547
162.0,0.2718875498683146
163.0,0.2728808365512424
164.0,0.2738736115620832
165.0,0.27486334284437053
166.0,0.27585034363113486
167.0,0.2768347095608028
168.0,0.27781609727053785
169.0,0.2787936989517557
170.0,0.27976852528199947
171.0,0.28074174087809944
172.0,0.2817120202220493
173.0,0.28267975101603454
174.0,0.2836451628290736
175.0,0.2846086276044549
176.0,0.28556962302778444
177.0,0.2865276924873835
178.0,0.28748305701508714
179.0,0.288436082420332
180.0,0.28938642414533194
181.0,0.2903341146708168
182.0,0.2912790482871919
183.0,0.29222224728944785
184.0,0.29316164596830213
185.0,0.2940967878043825
186.0,0.29502853397923806
187.0,0.29595735231206566
188.0,0.29688430023788503
189.0,0.29780958992149204
190.0,0.29873375827846993
191.0,0.2996564037157908
192.0,0.3005772118438538
193.0,0.3014958533707482
194.0,0.30241237958630446
195.0,0.3033272295194098
196.0,0.30424098482424
197.0,0.30515330571488714
198.0,0.30606460243797856
199.0,0.30697512221747913
200.0,0.30788387122511945
201.0,0.30879026211518495
202.0,0.30969454270249624
203.0,0.3105973237273238
204.0,0.31149806585224815
205.0,0.3123967686675865
206.0,0.3132934891217189
207.0,0.314187478091848
208.0,0.3150790894147293
209.0,0.3159682474306651
210.0,0.31685508016253616
211.0,0.3177402481179792
212.0,0.31862192726682353
213.0,0.3195007578983214
214.0,0.32037708612605115
215.0,0.3212520625519581
216.0,0.3221255352436172
217.0,0.3229973589398325
218.0,0.3238668657225142
219.0,0.3247340972305176
220.0,0.3255984836195133
221.0,0.3264611238917383
222.0,0.3273218477660516
223.0,0.3281810201050203
224.0,0.32903855093347456
225.0,0.32989464169124194
226.0,0.33074922051252326
227.0,0.33160185200083236
228.0,0.3324525809285855
229.0,0.3333017761303915
230.0,0.3341495946072166
231.0,0.33499569302628923
232.0,0.3358403699959985
233.0,0.3366840170364524
234.0,0.33752551529898633
235.0,0.3383661275286258
236.0,0.3392048150179899
237.0,0.340041190817556
238.0,0.3408754064944632
239.0,0.34170762637020574
240.0,0.3425381202482625
242.0,0.34418483637470154
244.0,0.345819165791965
246.0,0.3474377145595946
248.0,0.3490482791808254
250.0,0.35064925426857746
252.0,0.3522418620975171
254.0,0.35382895043925844
256.0,0.3554085789088134
258.0,0.35698327877567837
260.0,0.35855084971224127
262.0,0.3601118229487682
264.0,0.3616688609753915
266.0,0.363217562300529
268.0,0.36476266621202524
270.0,0.3663036304600362
272.0,0.3678361575743333
274.0,0.3693618293615168
276.0,0.3708803558112082
278.0,0.3723914593498666
280.0,0.37390005996648945
282.0,0.3754087566253527
284.0,0.3769108097040451
286.0,0.378408142592291
288.0,0.3799015576673527
290.0,0.3813875311961059
291.0,0.3821314586858907
292.0,0.3828770157333179
294.0,0.3843607318915028
296.0,0.38583755124662944
298.0,0.38730787437125275
300.0,0.38877469388457797
302.0,0.3902374473165345
304.0,0.3916919025523705
306.0,0.393141219624671
308.0,0.39458439044789134
310.0,0.39602783880008735
312.0,0.39747267502621786
314.0,0.3989160268972835
316.0,0.40035441904120755
318.0,0.4017890639454455
320.0,0.40321999460062036
322.0,0.4046445453060511
324.0,0.40606151191622825
326.0,0.40747151979395113
328.0,0.4088770029636747
330.0,0.4102782511820176
332.0,0.41168296726029363
334.0,0.4130816094087076
336.0,0.41448033156628544
338.0,0.41586995460279286
340.0,0.4172553965487583
342.0,0.41863410083616764
344.0,0.4200087942562815
346.0,0.42138008111229275
348.0,0.4227502259198459
350.0,0.42411369246622443
352.0,0.4254702231818861
353.0,0.42614871892253936
354.0,0.42682856834387556
356.0,0.4281805010559729
357.0,0.42885598338412617
358.0,0.42953144719341146
360.0,0.43087930597173846
361.0,0.4315523610930564
362.0,0.4322243326537762
364.0,0.4335639489463116
365.0,0.43423093404083757
366.0,0.43489734180283485
368.0,0.4362263594553025
370.0,0.43754037363026244
372.0,0.43885476728159917
374.0,0.44016229594798484
376.0,0.4414660877626835
378.0,0.4427634009266358
379.0,0.44341162640240456
380.0,0.444060306606278
382.0,0.4453559342730648
383.0,0.4460011595558743
384.0,0.44664714006189976
386.0,0.447937501089269
387.0,0.448579695071502
388.0,0.4492217476608127
389.0,0.44986403812077497
390.0,0.45050606969134593
391.0,0.4511485493905022
392.0,0.45179048864585536
393.0,0.45243181345917355
394.0,0.4530721560588562
395.0,0.45371251682267255
396.0,0.4543520521499103
397.0,0.45499042006320706
398.0,0.4556275973332519
400.0,0.4568993014234868
402.0,0.4581625463568304
404.0,0.4594181317634597
406.0,0.460668043150628
408.0,0.4619215616886651
410.0,0.4631675025980246
411.0,0.46378902842168146
412.0,0.46441033881720895
413.0,0.46503199865339506
414.0,0.465652742360414
415.0,0.466271913462436
416.0,0.4668894382931336
417.0,0.46750666438057265
418.0,0.46812318795014074
420.0,0.4693480623604957
422.0,0.47056640009803014
424.0,0.47177827645915327
426.0,0.47298793047052706
428.0,0.4741905946729948
430.0,0.47538546037458224
432.0,0.47657137801401644
434.0,0.47774991501866887
