"Physical Time (s)","Fill Efficiency Monitor: Fill Efficiency Monitor"
0.2,0.0025016705259041307
0.4,0.002487352652827305
0.75,0.002473083244762074
1.0,0.0024757550679278305
2.0,0.0026353680369041485
3.0,0.0030436634313673974
3.5,0.0033436875205846905
4.0,0.0036893256312470406
4.5,0.004095821892072129
4.625,0.004203363453407577
4.875,0.004426060793180008
5.125,0.004659225102566001
5.25,0.004780233119574816
5.5,0.005031409279981936
5.65,0.005187595850587883
5.7,0.005240162594623203
5.8999999999999995,0.005456371110172479
6.124999999999999,0.00570757063172585
6.249999999999999,0.005850684039347973
6.399999999999999,0.006024700502910007
6.599999999999998,0.0062619455489899625
6.6999999999999975,0.006381922790140524
6.899999999999997,0.006624256876839777
7.1249999999999964,0.006901422252903176
7.2499999999999964,0.00705733593955647
7.4999999999999964,0.007372749761077864
7.6249999999999964,0.007532213657565199
7.8749999999999964,0.00785521881639541
8.124999999999996,0.008183343570615433
8.249999999999996,0.00834957983226509
8.499999999999996,0.008684059065688678
8.749999999999996,0.009018588379579088
8.874999999999996,0.009186114924707339
9.124999999999996,0.00952194432574923
9.374999999999996,0.009858951659468157
9.499999999999996,0.010028078095719239
9.749999999999996,0.010366995085307532
9.999999999999996,0.010707496890263964
10.124999999999996,0.010877663723933432
10.374999999999996,0.011215147987511697
10.624999999999996,0.011550159785440085
10.749999999999996,0.011716768950888176
10.999999999999996,0.012048505641227957
11.249999999999996,0.012378758938950341
11.374999999999996,0.012543340974237673
11.624999999999996,0.012871074400930488
11.699999999999998,0.012968546031516438
11.799999999999997,0.013098096185719749
11.949999999999998,0.01329136434132377
11.999999999999998,0.013355375107013543
12.1,0.013482845310536822
12.200000000000001,0.013609556212329527
12.250000000000002,0.01367264230033861
12.350000000000003,0.013798209708288878
12.450000000000005,0.013922932268372303
12.500000000000005,0.013984943943686119
12.600000000000007,0.014108357611388421
12.700000000000008,0.014231009455462075
12.750000000000009,0.014292070024312929
12.85000000000001,0.014413613464117382
12.950000000000012,0.014534434662215254
13.000000000000012,0.01459459457941501
13.100000000000014,0.01471440720293151
13.200000000000015,0.0148335884328158
13.250000000000016,0.014893086681167683
13.350000000000017,0.015011723359086878
13.500000000000018,0.015189130045772875
13.625000000000018,0.01533528719423503
13.800000000000018,0.0155381598962989
14.000000000000018,0.015766933100989814
14.125000000000018,0.01590831007251791
14.300000000000018,0.016104741953211935
14.400000000000018,0.016216007121510247
14.625000000000018,0.01646362030474914
14.875000000000018,0.016734364292715742
15.000000000000018,0.016868114905490332
15.250000000000018,0.017132645713503345
15.500000000000018,0.017393249038295422
15.625000000000018,0.01752233901579772
15.875000000000018,0.017778130262465396
16.125000000000018,0.01803111587197037
16.250000000000018,0.01815670116193416
16.750000000000018,0.018652731675499492
17.000000000000018,0.018898067865482877
17.250000000000018,0.01914076424711625
17.500000000000018,0.01938187964804201
17.875000000000018,0.019739780694063153
18.000000000000018,0.01985811459512512
18.375000000000018,0.02020957376613305
18.750000000000018,0.020557235116451775
18.875000000000018,0.020672476985085946
19.250000000000018,0.02101475509276047
19.500000000000018,0.021241043999685575
19.750000000000018,0.0214649313868143
20.250000000000018,0.021907368879313077
20.500000000000018,0.022126599073033264
21.000000000000018,0.022560072678084776
21.500000000000018,0.022987639811793074
21.750000000000018,0.023199557633685693
22.250000000000018,0.023620382318867192
22.750000000000018,0.024037664471051913
23.000000000000018,0.02424486158546369
23.250000000000018,0.02445139645586778
23.625000000000018,0.024759312116014617
23.750000000000018,0.0248616673597704
24.250000000000018,0.025268565335542125
24.750000000000018,0.025671982296101865
25.000000000000018,0.02587241867137053
25.500000000000018,0.026270579153117916
26.000000000000018,0.0266668963479398
26.250000000000018,0.026864103154143035
26.750000000000018,0.027256636865114453
27.250000000000018,0.0276463549478953
27.500000000000018,0.02783953081757727
28.000000000000018,0.02822359684031614
28.250000000000018,0.028415258431789246
28.500000000000018,0.02860581213541415
28.750000000000018,0.028796264656964877
29.000000000000018,0.02898543952930185
29.250000000000018,0.029174419990551877
29.750000000000018,0.029549492817532854
30.000000000000018,0.029735915146279896
30.500000000000018,0.030105890881716547
31.000000000000018,0.030472322483087375
31.250000000000018,0.030654242475632688
31.750000000000018,0.03101587298369449
32.250000000000014,0.03137611862992685
32.500000000000014,0.03155518041325375
33.000000000000014,0.031911987696118325
33.250000000000014,0.03209013684419636
33.500000000000014,0.03226734171256971
33.750000000000014,0.03244435873395121
34.250000000000014,0.03279606521694031
34.500000000000014,0.032971070777204674
35.000000000000014,0.03331951144015213
35.500000000000014,0.03366553784207605
35.750000000000014,0.0338374629243127
36.125000000000014,0.03409492920477367
36.500000000000014,0.03435154888668401
36.750000000000014,0.03452196526175581
37.250000000000014,0.034860985231678084
37.500000000000014,0.03502978860528588
38.000000000000014,0.03536524884493926
38.500000000000014,0.035701368546126384
38.625000000000014,0.03578496820772315
38.875000000000014,0.03595138249135662
39.125000000000014,0.03611703632934024
39.250000000000014,0.03619962068329306
39.500000000000014,0.036364379211547025
39.750000000000014,0.03652857542926733
39.875000000000014,0.036610466507921005
40.125000000000014,0.03677370264789809
40.375000000000014,0.036936435567428066
40.500000000000014,0.037017648933589296
40.750000000000014,0.03717988196127828
41.000000000000014,0.03734179737262312
41.250000000000014,0.037502784785862546
41.500000000000014,0.03766366752302064
41.875000000000014,0.037903632605296785
42.000000000000014,0.03798361015142468
42.500000000000014,0.038301303811917195
43.000000000000014,0.038617528025205156
43.250000000000014,0.03877474000573468
43.750000000000014,0.039087528053366107
44.250000000000014,0.039396829981434345
44.500000000000014,0.03955051327788829
45.000000000000014,0.03985620567175157
45.250000000000014,0.04000820894852442
45.750000000000014,0.04031033746787354
46.250000000000014,0.04061003779784003
46.500000000000014,0.040759280325662
47.000000000000014,0.04105650325921976
47.500000000000014,0.041351993455889045
47.750000000000014,0.04149909444540658
48.250000000000014,0.04179183132792468
48.750000000000014,0.0420829245876611
49.000000000000014,0.0422279671933181
49.500000000000014,0.04251703825816964
50.000000000000014,0.042804890335909285
50.250000000000014,0.042948343010159186
50.750000000000014,0.043234316506631704
51.250000000000014,0.043518808891054965
51.500000000000014,0.043660534917442824
52.000000000000014,0.043943081626887336
52.500000000000014,0.04422452564148841
52.750000000000014,0.04436481988558837
53.250000000000014,0.044644597739576415
53.750000000000014,0.04492336878221824
54.000000000000014,0.04506232553203434
54.500000000000014,0.04533989810134732
54.750000000000014,0.045478539594161864
55.250000000000014,0.045755422680243116
55.750000000000014,0.046031399531442564
56.000000000000014,0.046169055211595214
56.500000000000014,0.04644394439074997
57.000000000000014,0.04671826370629952
57.250000000000014,0.04685515731615187
57.750000000000014,0.04712847448052739
58.250000000000014,0.047401198641649045
58.500000000000014,0.04753737888709755
59.000000000000014,0.04780932203995404
59.500000000000014,0.048080691136552875
59.750000000000014,0.048216155136652936
60.250000000000014,0.048486687498698146
60.750000000000014,0.04875658752389096
61.000000000000014,0.048891248845749566
61.500000000000014,0.049160064415679536
62.000000000000014,0.04942822477695565
62.250000000000014,0.049562030539921045
62.750000000000014,0.04982917546566784
63.250000000000014,0.050095746556942
63.500000000000014,0.05022878090965029
64.00000000000001,0.050494390424241774
64.25000000000001,0.05062697737248401
64.75000000000001,0.05089165755583196
65.25000000000001,0.05115573900167167
65.50000000000001,0.051287576034018435
66.50000000000001,0.05181178780457502
67.50000000000001,0.05233293964837313
68.00000000000001,0.05259287162327347
69.00000000000001,0.05311159537962176
70.00000000000001,0.05362911090782746
70.50000000000001,0.053887114251024486
71.25000000000001,0.05427316395709817
71.75000000000001,0.05453015481386414
72.00000000000001,0.05465850222215142
72.50000000000001,0.05491478561259135
73.00000000000001,0.055170526732643596
73.25000000000001,0.05529819869324089
73.75000000000001,0.055553236154206015
74.25000000000001,0.055807701277430684
74.50000000000001,0.05593474827722752
75.00000000000001,0.056188335288526806
75.50000000000001,0.05644128084723443
75.75000000000001,0.056567596979078344
76.25000000000001,0.05681997691884157
76.50000000000001,0.056946008756153806
77.50000000000001,0.05744779053369942
78.50000000000001,0.05794797019931057
79.00000000000001,0.05819731869427744
80.00000000000001,0.05869430826919279
81.00000000000001,0.059189038195329266
81.50000000000001,0.05943544592739843
82.50000000000001,0.05992698350960011
83.50000000000001,0.060416983005373445
84.00000000000001,0.06066113625295216
85.00000000000001,0.06114820044731505
86.00000000000001,0.06163257558556369
86.50000000000001,0.0618741383280672
87.50000000000001,0.06235591215535344
88.50000000000001,0.06283597719952617
89.00000000000001,0.06307522598023742
90.00000000000001,0.06355267944505612
91.00000000000001,0.06402847749111139
91.50000000000001,0.06426575910522457
92.50000000000001,0.06473937988140989
93.50000000000001,0.06521241106479234
94.00000000000001,0.06544856049736496
95.00000000000001,0.06592018450892295
95.50000000000001,0.06615576426099275
96.50000000000001,0.06662624683032224
97.50000000000001,0.06709569922536496
98.00000000000001,0.06732994789945676
99.00000000000001,0.06779786446744171
100.00000000000001,0.06826617114904449
100.50000000000001,0.06849994635793073
101.50000000000001,0.06896689299895116
102.50000000000001,0.0694325516561081
103.00000000000001,0.06966472401154314
104.00000000000001,0.07012770393036175
105.00000000000001,0.07058956055707245
105.50000000000001,0.07082017672452684
106.50000000000001,0.0712809132190923
107.50000000000001,0.07174120511679918
108.00000000000001,0.07197109219045854
109.00000000000001,0.07243007196285853
110.00000000000001,0.07288802752926285
110.50000000000001,0.07311684091934834
111.50000000000001,0.0735737776769064
112.50000000000001,0.07402881957427392
113.00000000000001,0.07425561166908487
114.00000000000001,0.07470837385232167
114.50000000000001,0.07493418196594606
115.50000000000001,0.07538465314181107
116.50000000000001,0.07583415809452544
117.00000000000001,0.0760586015180937
118.00000000000001,0.0765067187191371
119.00000000000001,0.07695401529978424
119.50000000000001,0.07717732357178676
120.50000000000001,0.07762267565275964
121.50000000000001,0.07806672459471015
122.00000000000001,0.07828837533408599
123.00000000000001,0.07873141071759604
124.00000000000001,0.07917344455641946
124.50000000000001,0.07939435201749136
125.50000000000001,0.07983540035475796
126.50000000000001,0.0802753543788751
127.00000000000001,0.08049502153620904
128.0,0.08093366561346738
129.0,0.08137097828765978
129.5,0.08158932087414023
130.5,0.0820253868159967
131.5,0.08246026996643825
132.0,0.08267729658552976
133.0,0.08311131307700476
133.5,0.08332789183467552
134.5,0.08376020167261608
135.5,0.08419167720104537
136.0,0.08440734371088292
137.0,0.0848378281421007
137.5,0.08505315508025824
138.0,0.08526858595851795
138.5,0.08548397264316847
139.25,0.08580662150037716
139.5,0.08591410978013482
140.5,0.08634326995869133
141.5,0.08677127759207
142.0,0.08698580741301531
143.0,0.08741398219550266
144.0,0.08784174022095406
144.5,0.08805537703499389
145.5,0.08848165542690486
146.5,0.0889065949032935
147.0,0.08911862978894099
148.0,0.08954208617522764
149.0,0.08996462515372616
149.5,0.09017545379352902
150.5,0.09059642694087187
151.5,0.09101709960805737
152.0,0.09122737868657961
153.0,0.09164742873440873
153.5,0.09185697850415787
154.5,0.0922753458104346
155.5,0.09269320424407089
156.0,0.09290177397034684
157.0,0.09331824597359042
158.0,0.09373374028601156
158.5,0.09394114251479253
159.5,0.09435528914491556
160.5,0.0947687036809883
161.0,0.09497515551806589
162.0,0.0953875231732756
163.0,0.09579939011874493
163.5,0.09600520722362149
164.5,0.09641620313258761
165.5,0.09682640121336823
166.0,0.09703126778342792
167.0,0.09744080876993104
168.0,0.09784990299405423
168.5,0.09805427897144658
169.5,0.09846238908201266
170.5,0.09886936258657604
171.0,0.09907272138815486
172.0,0.0994789922768608
172.5,0.0996820211197841
173.5,0.10008780638239556
174.5,0.10049333846576299
175.0,0.10069589447358807
176.0,0.10110075166171868
177.0,0.10150504489618668
177.5,0.10170698148669224
178.5,0.10211015121129588
179.5,0.10251250681990678
180.0,0.10271344732921514
181.0,0.10311497040219557
182.0,0.10351583403983063
182.5,0.10371624436953741
183.5,0.10411683086240567
184.5,0.1045168332607323
185.0,0.10471652471111913
186.0,0.10511514504844147
187.0,0.1055122666080929
187.5,0.10571056467529925
188.5,0.10610651757539272
189.5,0.10650173159302934
190.0,0.10669904941571272
191.0,0.10709289100118449
191.5,0.10728954157587557
192.5,0.1076824104511379
193.5,0.10807492941287185
194.0,0.1082710766867871
195.0,0.10866301596084618
196.0,0.10905446250560123
196.5,0.1092502041160685
197.5,0.10964159157318035
198.5,0.1100324553316143
199.0,0.11022775297085413
200.0,0.11061790777365826
201.0,0.11100768637155087
201.5,0.11120226403877995
202.5,0.11159080778429077
203.5,0.11197885147221963
204.0,0.1121726440774408
205.0,0.11255983782545359
206.0,0.11294684380372783
206.5,0.11314019912438328
207.5,0.11352650245060704
208.5,0.11391238057933996
209.0,0.11410496634992327
210.0,0.11448970495344123
210.5,0.11468182232723556
211.5,0.11506563331034796
212.5,0.1154490742035759
213.0,0.1156407572378832
214.0,0.11602381672609662
215.0,0.11640640371999944
215.5,0.11659754228748881
216.5,0.11697943116265004
217.5,0.11736088204013402
218.0,0.11755145463441045
219.0,0.11793238306376845
220.0,0.11831340149314139
220.5,0.11850384667317025
221.5,0.11888428646444618
222.5,0.11926421911004115
223.0,0.11945399192898035
224.0,0.11983303863907148
225.0,0.12021171396359226
225.5,0.12040101032977986
226.5,0.1207794251379842
227.5,0.12115744576692145
228.0,0.12134636948668089
229.0,0.12172391016270498
229.5,0.12191270238811429
230.5,0.12229022185265036
231.5,0.1226676890977443
232.0,0.12285632593797288
233.0,0.12323344201567651
234.0,0.12361014169429045
234.5,0.12379830637995919
235.5,0.12417415396107859
236.5,0.12454907122927612
237.0,0.12473614945252165
238.0,0.12510983018446042
239.0,0.1254830540938643
239.5,0.1256694725811718
240.5,0.12604213889901927
241.5,0.12641437253669613
242.0,0.12660036408078895
243.0,0.1269720918813034
244.0,0.12734316778477434
244.5,0.12752847223181546
245.5,0.1278988248714438
246.5,0.1282689668624148
247.0,0.12845406264211273
248.0,0.12882417438623464
248.5,0.1290091624876622
249.5,0.1293789615230455
250.5,0.12974816264179784
251.0,0.12993255613179167
252.0,0.1303010033776317
253.0,0.13066900559758565
253.5,0.13085296213704026
254.5,0.13122059407806438
255.5,0.13158788549662828
256.0,0.13177128068853147
257.0,0.132137677815543
258.0,0.1325033921415947
258.5,0.13268593293550313
259.5,0.1330509453842917
260.5,0.13341596594935817
261.0,0.13359849382483677
262.0,0.1339636170873338
263.0,0.13432872766363207
263.5,0.13451118639398296
264.5,0.13487573986191992
265.5,0.13523962068146705
266.0,0.13542132019143804
267.0,0.13578445948251003
267.5,0.13596584218561272
268.5,0.13632841082990846
269.5,0.13669060693158375
270.0,0.13687159568240356
271.0,0.13723351121475322
272.0,0.13759530592835625
272.5,0.13777604081689895
273.5,0.13813718431391317
274.5,0.1384979360486462
275.0,0.1386781922463035
276.0,0.13903895963401913
277.0,0.13939987777284385
277.5,0.13958028532404884
278.5,0.13994095097389386
279.5,0.1403013950274586
280.0,0.14048143929885687
281.0,0.1408409753605053
282.0,0.1411992860255264
282.5,0.1413780482028358
283.5,0.141735137144914
284.5,0.14209209980775495
285.0,0.14227051245185984
286.0,0.14262707161095003
287.0,0.14298317392759374
287.5,0.1431610905079139
288.5,0.1435167927695445
289.0,0.143694475786416
290.0,0.1440495160588427
291.0,0.1444040867128818
291.5,0.1445813333187889
292.5,0.1449360290247203
293.5,0.14529103534671806
294.0,0.14546861044839407
295.0,0.14582368455055847
296.0,0.14617855882886013
296.5,0.14635587571554304
297.5,0.1467100750600383
298.5,0.14706283092778027
299.0,0.14723889536475127
300.0,0.14759064086391413
301.0,0.1479418693497323
301.5,0.14811737122301835
302.5,0.1484680292935073
303.5,0.1488182676368262
304.0,0.14899316870280077
305.0,0.14934247893163563
306.0,0.14969099988953483
306.5,0.14986496887833134
307.5,0.15021296346693427
308.0,0.15038698082291688
308.5,0.15056143985007883
309.5,0.15091062057317664
310.0,0.15108517559645435
311.0,0.1514342412764668
312.0,0.1517831969485029
312.5,0.15195762061943205
313.5,0.1523053706382368
314.5,0.15265189075691946
315.0,0.15282489549920583
316.0,0.153170771024116
317.0,0.15351649119767305
317.5,0.1536892772806346
318.5,0.1540346266814196
319.5,0.15437950144678111
320.0,0.15455180353987408
321.0,0.15489597418558995
322.0,0.15523950480282211
322.5,0.1554111400658195
323.5,0.15575456216922134
324.5,0.15609736068890778
325.0,0.1562687717192072
326.0,0.15661170956413917
326.5,0.15678317156676155
327.5,0.15712598991691396
328.5,0.1574683506765118
329.0,0.15763923259001275
330.0,0.15798071932442598
331.0,0.15832176883940835
331.5,0.158492097075324
332.5,0.15883235790960024
333.5,0.15917209781083144
334.0,0.15934190771451984
335.0,0.15968140555824226
336.0,0.16002055630157877
336.5,0.16018986934247986
337.5,0.1605278263089521
338.5,0.1608650735993064
339.0,0.16103368876719645
340.0,0.16137071615578244
341.0,0.1617073163650199
341.5,0.16187548032549323
342.5,0.1622117950478569
343.5,0.1625486955749494
344.0,0.16271736207947593
345.0,0.16305488382967973
345.5,0.1632236376274122
346.5,0.1635610545988037
347.5,0.163898548512305
348.0,0.1640673024312319
349.0,0.16440476996717304
350.0,0.16474209748387122
350.5,0.16491074842271944
351.5,0.1652480298570549
352.5,0.16558509065508428
353.0,0.16575346174312164
354.0,0.16608996581765084
355.0,0.16642645315248922
355.5,0.16659461550608243
356.5,0.166930829556664
357.5,0.16726674483380136
358.0,0.1674346070157246
359.0,0.16777023191072285
360.0,0.1681056949420153
360.5,0.1682734004317694
361.5,0.16860878637408266
362.5,0.16894404295742355
363.0,0.16911159883583515
364.0,0.1694462313646036
364.5,0.1696133091575021
365.5,0.16994725598258997
366.5,0.17028087998151917
367.0,0.1704476277661087
368.0,0.17078093728617372
369.0,0.17111420277206543
369.5,0.1712808661771242
370.5,0.17161417595695017
371.5,0.17194719815077325
372.0,0.17211360727718356
373.0,0.17244626024510623
374.0,0.17277875339125645
374.5,0.17294492157392585
375.5,0.1732770923772533
376.5,0.17360920057190882
377.0,0.17377524546801298
378.0,0.17410729704084985
