"Physical Time (s)","Fill Efficiency Monitor: Fill Efficiency Monitor"
0.1,0.002174919021668256
0.4,0.002172989066608177
2.0,0.002375050280761209
4.0,0.0032347336151201693
5.0,0.003893139192908142
6.0,0.004669066031277168
6.5,0.005094160987443843
6.875,0.005426334205534536
7.375,0.005887861530950597
7.875,0.006368664657846378
8.25,0.006736934411447142
8.75,0.007230429346538805
9.25,0.007721379670410748
9.625,0.008086172191625255
10.5,0.008925821336980371
11.5,0.009863773246482034
12.25,0.010545942951700315
13.25,0.011415939311777517
14.25,0.012247551842978124
15.0,0.012849333426267196
16.0,0.01363017507705427
17.0,0.014390635790125469
17.75,0.01494868968659425
18.75,0.015676242832468698
19.75,0.016385793008478335
20.75,0.017079592608133076
21.5,0.01759253239198019
22.5,0.018268426945519254
23.5,0.018934425032678344
24.25,0.019427279500349167
25.5,0.020236974871676378
27.5,0.021503902219565177
29.0,0.022433883713013664
31.0,0.023652542452838207
32.25,0.024403683664273902
33.0,0.024851396397542684
34.25,0.02559289367252373
36.0,0.02662099650232811
37.5,0.027492000444488025
39.0,0.02835185495682889
41.0,0.029477019249468845
42.5,0.03030870300047591
44.5,0.031405818698899676
46.5,0.03248886565180335
48.0,0.03329051828139017
50.0,0.034344777445033725
52.0,0.03538480721539186
53.5,0.03615590243706365
55.5,0.03717166506356378
56.75,0.03779999048797757
57.75,0.038299457670710586
58.5,0.03867256386587898
59.5,0.03916766817966968
60.5,0.03966004867949015
62.0,0.04039294343865232
64.0,0.04135919861930681
66.0,0.04231149395595963
67.5,0.04301761686216326
69.5,0.04394868168202104
71.5,0.04487196521840476
73.0,0.04555906931402598
75.0,0.04646812288093738
77.0,0.04737049197614948
78.5,0.048042301412525766
80.5,0.04893325980901243
82.5,0.04981849856172418
84.0,0.050477107969955116
86.0,0.051348157210328774
88.0,0.052213495264226965
89.5,0.05285787563199099
91.5,0.053711311960554016
93.5,0.05456207995402716
95.5,0.055408212201425604
97.0,0.056041542564806694
99.0,0.0568816135032669
101.0,0.05771772284475802
102.5,0.05834453372438182
104.5,0.05917887207002015
106.5,0.06001113507730038
108.0,0.060633747895597924
110.0,0.06146113644815177
112.0,0.06228423162042071
113.5,0.06289961657522142
115.5,0.06371744918654437
117.5,0.06453287852697331
119.0,0.0651397695825658
121.0,0.06594346200871012
123.0,0.06674313399954088
124.5,0.06734254556267825
126.5,0.06814105177850333
128.5,0.06893739783292847
130.0,0.06953443302259778
132.0,0.07032736476034925
134.0,0.07111776171514755
135.5,0.07170997959635708
137.5,0.07249867067233633
139.5,0.07328642304337207
141.5,0.07407140498384243
143.0,0.07465828847314149
145.0,0.07543600720522717
147.0,0.07621192964025687
148.5,0.07679558908270277
150.5,0.07757218582064056
152.5,0.07834487128909554
154.0,0.07892222345366187
156.0,0.07968932930670261
158.0,0.08045608652643946
159.5,0.08102990221266242
161.5,0.08179357596914019
163.5,0.08255319482075725
165.0,0.08312069367216064
167.0,0.08387659192955206
169.0,0.08462798076868899
170.5,0.08518790860420493
172.5,0.08592882738196843
174.5,0.08666811024992632
176.0,0.08722350742988745
178.0,0.08796253822083505
180.0,0.08869848049734025
182.0,0.08943026113488385
183.5,0.08997744960870224
185.5,0.09070614737116686
187.5,0.0914341390146682
189.0,0.09197920270807737
191.0,0.09270487320326745
193.0,0.09342603113011658
194.5,0.09396683724714074
196.5,0.09468748039958955
198.5,0.09540673229488483
200.0,0.09594514307549373
202.0,0.09666186635581903
204.0,0.09737693784685071
205.5,0.09791186724592267
207.5,0.09862353644899848
209.5,0.0993331081053615
211.0,0.09986448590153421
213.0,0.10057166982026122
215.0,0.10127612108971745
216.5,0.10180369255259829
218.5,0.10250666628312759
220.5,0.1032096390106442
222.0,0.10373622916791864
224.0,0.10443670276820625
226.0,0.10513673631355828
228.0,0.10583574313833649
229.5,0.10635868069014501
231.5,0.10705376949914586
233.5,0.10774656762277988
235.0,0.10826512711826436
237.0,0.10895617145951801
239.0,0.10964597571869365
240.5,0.11016220982746766
242.5,0.11084947620700356
244.5,0.11153522015338876
246.0,0.11204863767271012
248.0,0.11273248896700842
250.0,0.11341374539210354
251.5,0.11392335749888463
253.5,0.11460229166839563
255.5,0.11528012723862992
257.0,0.11578764726667062
259.0,0.11646351347972797
261.0,0.11713851409505745
262.5,0.11764407057725908
264.5,0.11831560181505868
266.5,0.11898541887774412
268.5,0.11965406079811841
270.0,0.12015442196109462
272.0,0.12081926182964307
274.0,0.12148357026022677
275.5,0.12198191899841397
277.5,0.12264607516134958
279.5,0.1233091710510958
281.0,0.12380550508859009
283.0,0.12446637619877741
285.0,0.12512584364768725
286.5,0.1256199990897126
288.5,0.12627746385403393
290.5,0.12693409920035392
292.0,0.1274264790236107
294.0,0.1280827467946705
296.0,0.1287378462636589
297.5,0.12922852197544704
299.5,0.12988181632029466
301.5,0.1305341546570175
303.0,0.13102270104590785
305.0,0.13167259696977626
307.0,0.1323215430553473
308.5,0.13280816324672742
310.5,0.13345684840350383
312.5,0.13410469307977732
314.5,0.13475146507271385
316.0,0.13523614484579116
318.0,0.13588133701974528
320.0,0.13652550266107116
321.5,0.13700808597484443
323.5,0.13765037124720075
325.5,0.13829197703348373
327.0,0.13877264018612234
329.0,0.1394129001158357
331.0,0.14005195034507564
332.5,0.14053044930839134
334.5,0.1411670221164021
336.5,0.14180294786179537
338.0,0.14227980779295082
340.0,0.14291466416591941
342.0,0.14354902628639457
343.5,0.14402444896444455
345.5,0.14465723200470795
347.5,0.14528895989985122
349.0,0.14576214207598706
351.0,0.14639212844575145
353.0,0.14702154877821813
355.0,0.1476501994651799
356.5,0.14812105793351374
358.5,0.1487490678378513
360.5,0.1493761957588049
362.0,0.1498463119264824
364.0,0.1504723137165112
366.0,0.15109685573014095
367.5,0.15156418318011472
369.5,0.1521858802813375
371.5,0.1528063539194233
373.0,0.15327112855216685
375.0,0.1538897061318831
377.0,0.1545075056349323
378.5,0.15497184257491137
380.5,0.15559136968655807
382.5,0.15621104503496952
384.0,0.1566756440145835
386.0,0.1572946878960094
388.0,0.15791367900035422
389.5,0.1583778429629125
391.5,0.15899701156312052
393.5,0.15961633588442167
395.0,0.16008035219968117
397.0,0.1606990390637136
399.0,0.1613171469217541
401.0,0.16193484780684053
402.5,0.1623974653995052
404.5,0.16301253706507082
406.5,0.16362672543565462
408.0,0.16408695307614832
410.0,0.16469987556771576
412.0,0.16531157139761768
413.5,0.1657692096414037
415.5,0.16637926173349923
417.5,0.16698960173164318
419.0,0.1674470710092725
421.0,0.1680559900830893
423.0,0.1686636631711561
424.5,0.16911844945099594
426.5,0.16972375044647464
428.5,0.17032773692586362
430.0,0.170779713726179
432.0,0.17138033878557526
434.0,0.17197998997181088
435.5,0.17242944977170874
437.5,0.17302888244246212
439.5,0.17362856138354874
441.5,0.1742286521874439
443.0,0.17467921773061887
445.0,0.17528005687376333
447.0,0.1758800736051879
448.5,0.17632958130256457
450.5,0.1769290844607992
452.5,0.17752829667698533
454.0,0.17797802509763683
456.0,0.17857841109395808
458.0,0.17917928168636038
459.5,0.1796298103521842
461.5,0.1802298746368687
463.5,0.18082858400415172
465.0,0.18127710359110727
467.0,0.18187481713145187
469.0,0.18247212966990592
470.5,0.1829197062361651
472.5,0.18351596340363624
474.5,0.18411126943099118
476.0,0.1845570318179506
478.0,0.18515117320102384
480.0,0.1857458017514906
481.5,0.18619234280464592
483.5,0.1867879567241577
485.5,0.1873834809888728
487.5,0.1879786985268681
489.0,0.18842456482717196
491.0,0.18901936671674646
493.0,0.1896151614249212
494.5,0.19006267515280414
496.5,0.19065944940702875
498.5,0.19125592360029897
500.0,0.19170321530585466
502.0,0.1922994564591021
504.0,0.192895337925493
505.5,0.193342565260865
507.5,0.1939392723624118
509.5,0.19453557901387591
511.0,0.1949822745910305
513.0,0.19557683619958632
515.0,0.1961706856266754
516.5,0.196615725208344
518.5,0.19720862841763417
520.5,0.1978012653031132
522.0,0.19824576709094552
524.0,0.19883837506920965
526.0,0.19943088845611148
528.0,0.2000227352241268
529.5,0.20046624233877108
531.5,0.20105735783768935
533.5,0.20164829802765324
535.0,0.20209126523698595
537.0,0.20268148100729688
539.0,0.20327139352299092
540.5,0.2037137522807998
542.5,0.20430351544668765
544.5,0.2048933476595885
546.0,0.20533574943718486
548.0,0.2059255054981375
550.0,0.2065150565319185
551.5,0.20695697891493267
553.5,0.20754602794816177
555.5,0.2081352450162636
557.0,0.20857719932527405
559.0,0.20916629537623432
561.0,0.20975551503329454
562.5,0.21019746476110263
564.5,0.21078684236576306
566.5,0.21137633528040586
568.0,0.21181847573100682
570.0,0.21240803762895247
572.0,0.2129973695392025
574.0,0.21358659187491008
575.5,0.21402827167871133
577.5,0.2146164851629958
579.5,0.21520397631154112
581.0,0.21564420830937212
583.0,0.21623051216306174
585.0,0.21681539045636292
586.5,0.217253367741441
588.5,0.21783633480820208
590.5,0.21841832756161073
592.0,0.21885428003810073
594.0,0.21943491149106978
596.0,0.22001515206609856
597.5,0.2204503327696565
599.5,0.22103035890046546
601.5,0.2216103386800519
603.0,0.2220452588027741
605.0,0.22262536189977283
607.0,0.22320558061697873
608.5,0.2236406305242067
610.5,0.22422071176440103
612.5,0.22480052758531702
614.5,0.2253798603111677
616.0,0.22581440478544404
618.0,0.2263935005859803
620.0,0.22697231339439908
621.5,0.22740652402369294
623.5,0.22798547638711977
625.5,0.2285646667293221
627.0,0.22899922501449146
629.0,0.22957868772076132
631.0,0.23015828234852997
632.5,0.23059279189468004
634.5,0.2311717242440817
636.5,0.23175033696419192
638.0,0.23218423242966432
640.0,0.23276295343645187
642.0,0.23334167793376007
643.5,0.23377548733702622
645.5,0.23435387389504014
647.5,0.23493183049739066
649.0,0.2353650167950264
651.0,0.23594196151685182
653.0,0.2365173019080433
654.5,0.23694849164179058
656.5,0.2375235290608431
658.5,0.23809880136425216
660.5,0.23867411277106704
662.0,0.23910569072669088
664.0,0.2396816529088877
666.0,0.2402583890488979
667.5,0.24069074128850368
669.5,0.24126640861933352
671.5,0.24184237848644163
673.0,0.24227483547183093
675.0,0.24285210821303424
677.0,0.24343009398767107
678.5,0.24386427116943296
680.5,0.24444411603000665
682.5,0.24502473448125486
684.0,0.24546055010843362
686.0,0.246041783869723
688.0,0.24662248959592334
689.5,0.2470580599415745
691.5,0.24763919905561052
693.5,0.248220250649921
695.0,0.24865653611949237
697.0,0.2492388369567408
699.0,0.24982117434180556
700.5,0.250258093530326
702.5,0.250840701851502
704.5,0.25142294588270003
706.5,0.25200496785589505
708.0,0.2524422747227667
710.0,0.2530261701660991
712.0,0.2536105028133651
713.5,0.25404854727247733
715.5,0.2546325072937363
717.5,0.2552162671596168
719.0,0.25565380549070965
721.0,0.2562366045783221
723.0,0.25681991400442095
724.5,0.2572576714273393
726.5,0.2578416978316984
728.5,0.25842603839789224
730.0,0.2588646684052825
732.0,0.2594496613899252
734.0,0.26003448960279474
735.5,0.2604729968898237
737.5,0.26105800613948077
739.5,0.2616436395921664
741.0,0.26208302040860376
743.0,0.2626691895674089
745.0,0.2632555535612734
747.0,0.26384187022450284
748.5,0.26428169554790437
750.5,0.26486786883220226
752.5,0.26545286251259353
754.0,0.26589187927491925
756.0,0.2664772500539838
758.0,0.2670623381260319
759.5,0.26750095536979596
761.5,0.2680861998799861
763.5,0.26867177665026465
765.0,0.2691109586373708
767.0,0.26969656868189607
769.0,0.2702814248651657
770.5,0.27072005461308746
772.5,0.27130557303031955
774.5,0.2718918004203436
776.0,0.27233179884013214
778.0,0.27291873648279025
780.0,0.27350597861909076
781.5,0.2739466336756495
783.5,0.274534227514645
785.5,0.27512168670916953
787.0,0.2755623848776137
789.0,0.27615034274173994
791.0,0.27673857593931867
793.0,0.27732697073698465
794.5,0.27776859484937033
796.5,0.2783581995371669
798.5,0.27894873744714077
800.0,0.2793919935619135
802.0,0.2799835437523837
804.0,0.2805752734163479
805.5,0.2810190642983
807.5,0.2816107937458082
809.5,0.28220283005757196
811.0,0.282647020538269
813.0,0.28323929818740884
815.0,0.28383196606487837
816.5,0.28427667990887445
818.5,0.2848699337691955
820.5,0.28546371549478994
822.0,0.2859092236616596
824.0,0.28650325504759383
826.0,0.28709753506162006
827.5,0.28754340076226614
829.5,0.2881381290274192
831.5,0.2887335670222237
833.5,0.289329434475462
835.0,0.28977650467976557
837.0,0.29037239735755094
839.0,0.29096782345860506
840.5,0.2914143592999693
842.5,0.29200995321690504
844.5,0.2926055149266632
846.0,0.2930523357652937
848.0,0.2936483025393034
850.0,0.2942446926264263
851.5,0.29469206625800265
853.5,0.295288804245634
855.5,0.29588587568982
857.0,0.29633387076151874
859.0,0.29693134862728426
861.0,0.29752914197098
862.5,0.29797779118655
864.5,0.2985765174965369
866.5,0.2991756951263332
868.0,0.29962549355029705
870.0,0.3002254247296212
872.0,0.30082595301432324
873.5,0.30127665389857466
875.5,0.3018781588455935
877.5,0.30248040144279853
879.5,0.3030834484674718
881.0,0.3035362727337549
883.0,0.3041403554403011
885.0,0.30474412614153407
886.5,0.305196646988917
888.5,0.3057999031423458
890.5,0.30640354386828217
892.0,0.3068567830688109
894.0,0.3074619775077764
896.0,0.3080680350870683
897.5,0.3085228182032158
899.5,0.30912974864847625
901.5,0.3097369368907392
903.0,0.3101923759755393
905.0,0.31079955847552776
907.0,0.3114067048941413
908.5,0.3118620529796855
910.5,0.31246855670888246
912.5,0.3130748292921973
914.0,0.3135297616610004
916.0,0.3141365873294599
918.0,0.3147436316127427
920.0,0.3153511397892513
921.5,0.3158069511639277
923.5,0.3164148120833788
925.5,0.31702296472827
927.0,0.3174791653972629
929.0,0.31808730224387005
931.0,0.3186953376814427
932.5,0.3191515336715387
934.5,0.3197601857754942
936.5,0.32036929474528136
938.0,0.3208266894595301
940.0,0.32143747617291996
942.0,0.3220491774973379
943.5,0.322508729372448
945.5,0.3231225633487472
947.5,0.32373729370392007
949.0,0.32419910668569224
951.0,0.3248154412700171
953.0,0.3254322801094165
954.5,0.3258952946991494
956.5,0.32651316311021805
958.5,0.3271315061326258
960.0,0.3275955002515875
962.0,0.3282145215727083
964.0,0.3288331220451435
966.0,0.3294520381124962
967.5,0.32991634751912563
969.5,0.3305357928177272
971.5,0.33115562181561997
973.0,0.3316204979106578
975.0,0.3322404946934469
977.0,0.3328606444476871
978.5,0.3333259652209602
980.5,0.333946456118475
982.5,0.3345665624478777
984.0,0.3350316883718932
986.0,0.3356516403844955
988.0,0.33627133342628374
989.5,0.33673610391841846
991.5,0.33735617628219944
993.5,0.3379765250682552
995.0,0.3384417864909639
997.0,0.3390622244043163
999.0,0.33968278672143276
1000.5,0.3401482213126623
1002.5,0.34076874836867216
1004.5,0.34138934125867687
1006.5,0.34201019582595604
1008.0,0.34247597743802904
1010.0,0.3430974730269688
1012.0,0.3437195110498639
1013.5,0.3441861419126109
1015.5,0.34480875146028966
1017.5,0.3454321465231048
1019.0,0.34590009767473656
1021.0,0.34652462672828643
1023.0,0.3471496876176649
1024.5,0.3476189577314305
1026.5,0.34824518172628055
1028.5,0.34887231349007986
1030.0,0.34934329095900285
1032.0,0.34997191786154913
1034.0,0.3506010700519775
1035.5,0.3510731859761638
1037.5,0.3517029495094668
1039.5,0.3523329255018476
1041.0,0.3528054872380195
1043.0,0.3534356647508658
1045.0,0.3540660683500346
1046.5,0.35453896116916345
1048.5,0.35516940203305136
1050.5,0.3558001389516575
1052.5,0.3564307715717787
1054.0,0.35690335313780286
1056.0,0.3575331354697198
1058.0,0.35816261958547396
1059.5,0.35863455654504695
1061.5,0.3592636372553146
1063.5,0.35989247341817665
1065.0,0.3603639380714793
1067.0,0.3609925925277683
1069.0,0.36162078697211547
1070.5,0.3620918422076943
1072.5,0.36271976578024495
1074.5,0.36334794542239257
1076.0,0.36381933821678225
1078.0,0.3644481180420467
1080.0,0.36507671847798406
1081.5,0.3655480420146908
1083.5,0.3661764194801366
1085.5,0.3668052919276529
1087.0,0.36727724018802665
1089.0,0.36790654459136835
1091.0,0.36853571450557693
1093.0,0.3691650200919816
1094.5,0.3696370501668181
1096.5,0.3702669088355916
1098.5,0.37089747113095584
1100.0,0.37137066785142947
1102.0,0.372001519330462
1104.0,0.37263228947498944
1105.5,0.37310518825319633
1107.5,0.37373481269896897
1109.5,0.37436345919828884
1111.0,0.3748344292736589
1113.0,0.3754625747194897
1115.0,0.3760908041198071
1116.5,0.37656218476390346
1118.5,0.37719120784831967
1120.5,0.37782039069114937
1122.0,0.37829277644477005
1124.0,0.37892368519680153
1126.0,0.37955614408699845
1127.5,0.38003135919384395
1129.5,0.3806663424504097
1131.5,0.3813027228160146
1133.0,0.3817806321786295
1135.0,0.38241849965860203
1137.0,0.38305676290646246
1139.0,0.3836953389571439
1140.5,0.384174433541753
1142.5,0.38481316311212693
1144.5,0.38545202285751085
1146.0,0.3859310564612194
1148.0,0.38656994470286904
1150.0,0.38720963978598477
1151.5,0.387689833462676
1153.5,0.38833060494721766
1155.5,0.38897106977739915
1157.0,0.3894512177185021
1159.0,0.3900910556087149
1161.0,0.390730028739296
1162.5,0.39120822217174145
1164.5,0.39184430791435315
1166.5,0.392479649545388
1168.0,0.39295618852276815
1170.0,0.3935910272860077
1172.0,0.39422539134984796
1173.5,0.39470092280575303
1175.5,0.3953343725581102
1177.5,0.39596731482365294
1179.5,0.39660050854904016
1181.0,0.3970755174665756
1183.0,0.39770921365714307
1185.0,0.3983431909491363
1186.5,0.3988191718738675
1188.5,0.3994544156686968
1190.5,0.40008982833833945
1192.0,0.4005662646118572
1194.0,0.4012012088333441
1196.0,0.40183587898623463
1197.5,0.4023120862003611
1199.5,0.4029471153028828
1201.5,0.40358199767765013
1203.0,0.4040579197829138
1205.0,0.404692036613702
1207.0,0.4053253241586754
1208.5,0.4057998184555033
1210.5,0.40643134841811024
1212.5,0.40706196438029846
1214.0,0.40753445163460594
1216.0,0.40816370500453364
1218.0,0.4087926460107072
1219.5,0.40926434418390145
1221.5,0.4098930569643634
1223.5,0.4105212404289343
1225.5,0.4111486923508662
1227.0,0.4116186647951022
1229.0,0.4122449453819242
1231.0,0.41287114701735306
1232.5,0.4133410623895222
1234.5,0.4139676914839532
1236.5,0.41459448796257853
1238.0,0.41506467074205544
1240.0,0.4156916375994753
1242.0,0.416318720534644
1243.5,0.41678906852743225
1245.5,0.4174164311167677
1247.5,0.41804421223449967
1249.0,0.4185150125376857
1251.0,0.4191421296702001
1253.0,0.4197688187311196
1254.5,0.42023862809327056
1256.5,0.4208648306087446
1258.5,0.42149020226603773
1260.0,0.42195861376498833
1262.0,0.422582875151934
1264.0,0.4232073052354436
1266.0,0.42383263109882124
1267.5,0.4243019503142931
1269.5,0.4249278585925219
1271.5,0.4255541620829506
1273.0,0.4260241170644721
1275.0,0.4266505135307201
1277.0,0.42727696417459526
1278.5,0.4277462587784644
1280.5,0.4283714315999676
1282.5,0.4289962058561624
1284.0,0.4294642886082704
1286.0,0.43008767688616306
1288.0,0.4307107462260777
1289.5,0.43117801176770837
1291.5,0.43180047106786595
1293.5,0.43242201329708696
1295.0,0.432887261715457
1297.0,0.4335070274064407
1299.0,0.4341258589649405
1300.5,0.43458889671415246
1302.5,0.4352056314685587
1304.5,0.43582186124577527
1306.0,0.43628392864541515
1308.0,0.43689989115112143
1310.0,0.43751606310751623
1312.0,0.43813269124273174
1313.5,0.4385953316104767
1315.5,0.43921250001135864
1317.5,0.43982994332030717
1319.0,0.44029286383884236
1321.0,0.44090907075008884
1323.0,0.44152356473161597
1324.5,0.44198306095828965
1326.5,0.4425945900758222
1328.5,0.4432056040633272
