"Physical Time (s)","Fill Efficiency Monitor: Fill Efficiency Monitor"
0.1,0.002174876381207998
0.30000000000000004,0.0021729657079252373
1.0,0.0022048632593188048
2.5,0.0025221964343227414
4.0,0.00323462776081573
5.0,0.0038932100945713683
5.5,0.004265838094699424
6.125,0.004773108661507441
6.5,0.005093954436101597
6.875,0.0054261075247762774
7.25,0.005770229552775612
7.5,0.006006013090089249
7.875,0.006368228961005554
8.25,0.006736442535529391
8.625,0.007106478243281562
9.0,0.007475986380831378
9.25,0.007720611137304773
9.625,0.008085277246664805
10.25,0.008686886634166106
11.0,0.009396528353050979
11.75,0.010092369811990114
12.25,0.01054452839199806
13.0,0.011200651683346365
13.75,0.011834425309511398
14.5,0.012447980498664671
15.25,0.013044369457006988
15.75,0.013434383849232592
16.5,0.014010102951713631
17.25,0.014574852705596861
18.0,0.01512944277460695
18.75,0.015673076596453624
19.25,0.016029925632497524
20.0,0.01655728853902917
20.75,0.017076284768491854
21.5,0.017589128505243263
22.25,0.018096767094665435
22.75,0.018432201911757557
23.5,0.018930677978446626
24.25,0.019423550771443233
25.0,0.01991129717003045
25.75,0.02039419817638403
26.25,0.0207134750678461
27.0,0.021188272242160834
27.75,0.021658535034821735
29.0,0.02243238647279923
30.5,0.023348308379047753
31.5,0.023951778930792138
32.25,0.02440175142781018
33.0,0.024849462377442157
34.5,0.02573812991048162
36.0,0.026619440831751218
37.5,0.027491596561934846
38.5,0.02806718667294092
40.0,0.02891991541719198
41.5,0.029762166683122794
43.0,0.03059442045537159
44.5,0.031419218021904095
45.5,0.031965395625211314
47.0,0.03277759927128857
48.5,0.033582123668181904
50.0,0.03437924252145226
51.5,0.03516736018964605
52.5,0.03568879084443613
54.0,0.03646535328992429
55.5,0.03723427237564082
57.0,0.0379975384492822
58.5,0.038755149526313294
59.5,0.03925656305495182
60.25,0.03963091746171313
61.0,0.04000293220061788
61.75,0.04037289858298213
62.5,0.04074112852710154
63.5,0.041229236439155006
65.0,0.04195501782442255
66.0,0.042434847518760976
67.5,0.043147100362860645
69.0,0.043851121989049516
70.0,0.04431645891201254
71.5,0.04501064761556508
73.0,0.04569942743743065
74.5,0.046382976945657683
76.0,0.04706219474305294
77.0,0.04751316256522606
78.5,0.048185538765300906
80.0,0.04885479106582189
81.5,0.049520463792273595
83.0,0.050182745213842465
84.0,0.05062169455051705
85.5,0.051276120621762046
87.0,0.051925972944767015
88.5,0.052573604715322485
90.0,0.053216732069256506
91.0,0.05364323151506657
92.5,0.05428055669008215
94.0,0.054917239600039525
95.5,0.05555070668065898
97.0,0.056183163388950116
98.0,0.05660377545040309
99.5,0.05723123484257915
101.0,0.057855975653078304
102.5,0.05847842420816905
104.0,0.05910132622018316
105.5,0.05972454659106377
106.5,0.060139279171834245
108.0,0.06076025741763193
109.5,0.0613801576049479
111.0,0.061998315103200356
112.5,0.06261406192757327
113.5,0.0630233064284239
115.0,0.0636357110928337
116.5,0.06424724609935431
118.0,0.06485744305444874
119.5,0.06546546243786072
120.5,0.06586887388126428
122.0,0.0664700106202518
123.5,0.06706866179371548
125.0,0.06766678778016097
126.5,0.06826482786334051
127.5,0.06866406309700505
129.0,0.06926290131718423
130.5,0.06986028369038526
132.0,0.07045488611485042
133.5,0.07104815232680352
134.5,0.0714437882974743
136.0,0.07203700018399538
137.5,0.07262950132198624
139.0,0.07322077497562322
140.5,0.07380929584181851
141.5,0.07420080104772789
143.0,0.07478802831558616
144.5,0.07537218580434275
146.0,0.0759551030493964
147.5,0.07653885412596352
148.5,0.07692799466231068
150.0,0.07751100176657078
151.5,0.07809173585453523
153.0,0.07866984123019266
154.5,0.0792455687376688
155.5,0.07962862378463721
157.0,0.08020322161612173
158.5,0.08077778666546559
160.0,0.08135176992399715
161.5,0.08192499418457802
162.5,0.08230629191887588
164.0,0.0828746845341047
165.5,0.0834406318268589
167.0,0.08400753766029423
168.5,0.08457142447176533
169.5,0.08494535349492206
171.0,0.08550357962336058
172.5,0.08605931317356497
174.0,0.0866134770322381
175.5,0.08716809389994477
177.0,0.08772264999597933
178.0,0.08809227332795339
179.5,0.08864504830715643
181.0,0.0891959395468713
182.5,0.089743617194281
184.0,0.09029016465574922
185.0,0.0906539751675368
186.5,0.09120032387783152
188.0,0.09174601343286659
189.5,0.09229122803749822
191.0,0.09283527213344722
192.0,0.09319640866352433
193.5,0.09373664479525448
195.0,0.0942778398063698
196.5,0.09481887157112182
198.0,0.0953595297833003
199.0,0.0957193891462798
200.5,0.09625831332068353
202.0,0.09679660472040383
203.5,0.09733391181312248
205.0,0.09786980210812855
206.0,0.09822630534796842
207.5,0.0987601745892879
209.0,0.09929285700223645
210.5,0.09982506437763528
212.0,0.10035677759925428
213.0,0.10071073526819335
214.5,0.10124050743633617
216.0,0.10176919757332031
217.5,0.10229700080792399
219.0,0.10282468095675404
220.0,0.10317670241225681
221.5,0.1037047744865505
223.0,0.10423224371422667
224.5,0.10475863956351347
226.0,0.10528439658926374
227.0,0.1056344646779058
228.5,0.10615896435085707
230.0,0.10668288551633702
231.5,0.10720564253279097
233.0,0.10772644115917179
234.0,0.10807308258748902
235.5,0.10859241767252376
237.0,0.10911146857231216
238.5,0.10962985224682006
240.0,0.11014753827608267
241.5,0.11066414860047229
242.5,0.11100810373656984
244.0,0.11152360631070467
245.5,0.11203889250243018
247.0,0.11255339736017149
248.5,0.11306724531933297
249.5,0.11340898922674476
251.0,0.11392028503346666
252.5,0.11443083455275602
254.0,0.11494067185810816
255.5,0.11544959823942487
256.5,0.1157885506140729
258.0,0.11629663067063267
259.5,0.11680365722118205
261.0,0.11731028618597258
262.5,0.1178163619210803
263.5,0.11815324778206225
265.0,0.11865760154662218
266.5,0.11916051156218808
268.0,0.11966292838333624
269.5,0.12016482211051131
270.5,0.12049872999007268
272.0,0.12099872166471362
273.5,0.12149777660587445
275.0,0.12199670404539897
276.5,0.12249554361846265
277.5,0.12282786795221806
279.0,0.12332606301004756
280.5,0.12382350935142246
282.0,0.1243199765148199
283.5,0.12481579796888438
284.5,0.1251458323312973
286.0,0.1256403504707284
287.5,0.12613448291640972
289.0,0.12662783504677746
290.5,0.12712077991195556
291.5,0.12744936624338615
293.0,0.1279420446662154
294.5,0.12843429782249502
296.0,0.1289258254098046
297.5,0.12941686443591796
298.5,0.1297437681531162
300.0,0.13023358067060398
301.5,0.13072307781655196
303.0,0.13121210836183286
304.5,0.13170006242573504
305.5,0.13202477071938878
307.0,0.1325118689676482
308.5,0.13299894012146335
310.0,0.13348578314887083
311.5,0.13397244569009958
313.0,0.13445853802085964
314.0,0.13478212396683664
315.5,0.13526719222308767
317.0,0.13575190094330247
318.5,0.13623597655441824
320.0,0.13671950965545018
321.0,0.13704164836612465
322.5,0.13752420666400703
324.0,0.13800594525736984
325.5,0.13848751370381243
327.0,0.13896884988044586
328.0,0.13928920069481365
329.5,0.13976944939066205
331.0,0.14024904799481205
332.5,0.1407280398786756
334.0,0.14120625559301273
335.0,0.1415248591057041
336.5,0.1420026909774836
338.0,0.1424802893044623
339.5,0.14295727227125216
341.0,0.1434335147271714
342.0,0.14375077495286212
343.5,0.1442263956095964
345.0,0.1447015695187103
346.5,0.14517621524717586
348.0,0.14565019286613193
349.0,0.14596568929642575
350.5,0.1464381905775757
352.0,0.146910164949295
353.5,0.1473822307729046
355.0,0.14785418751296736
356.0,0.14816864730054882
357.5,0.14864009069082842
359.0,0.14911086118895045
360.5,0.1495812418129832
362.0,0.15005144581180035
363.0,0.1503645753865759
364.5,0.15083385980526137
366.0,0.15130245286535438
367.5,0.15177004097266494
369.0,0.15223606618157634
370.0,0.15254652081641132
371.5,0.15301178047045655
373.0,0.1534767821291328
374.5,0.15394109579839368
376.0,0.15440469803478865
377.0,0.15471372932983027
378.5,0.1551772137401983
380.0,0.15564124409282093
381.5,0.15610572924199603
383.0,0.15657051657911483
384.5,0.15703564225271188
385.5,0.1573457993942792
387.0,0.15781045390250228
388.5,0.15827447236799275
390.0,0.15873936654179366
391.5,0.15920469778553523
392.5,0.15951485777078256
394.0,0.15998012050767416
395.5,0.16044496493877414
397.0,0.1609091446995523
398.5,0.161373805539326
399.5,0.16168416370408034
401.0,0.16214982909476847
402.5,0.16261525140191668
404.0,0.16307993981495505
405.5,0.16354201401331092
406.5,0.163849281298959
408.0,0.1643098083644557
409.5,0.1647703504580203
411.0,0.1652305863515969
412.5,0.1656902986998636
413.5,0.16599620878587149
415.0,0.16645438145066763
416.5,0.16691276680155334
418.0,0.1673717116487961
419.5,0.16783078528394174
420.5,0.1681366038493201
422.0,0.16859455044123164
423.5,0.1690506082592803
425.0,0.16950573821767714
426.5,0.16996020011911436
427.5,0.1702626731986655
429.0,0.17071600120098104
430.5,0.17116862136003996
432.0,0.17162030758110963
433.5,0.17207074127778973
434.5,0.1723708475531363
436.0,0.1728210593142966
437.5,0.17327095041329357
439.0,0.1737205865728367
440.5,0.17417068975671599
441.5,0.1744709811374234
443.0,0.17492133871186155
444.5,0.1753723801899182
446.0,0.17582360488143903
447.5,0.17627440669196173
449.0,0.17672441087257312
450.0,0.17702410127291415
451.5,0.17747341494377492
453.0,0.17792305558467233
454.5,0.1783728213946966
456.0,0.1788227749784348
457.0,0.17912288199845677
458.5,0.17957307004772002
460.0,0.180023124421905
461.5,0.18047266128855463
463.0,0.18092172853594404
464.0,0.18122053282478987
465.5,0.18166839739170695
467.0,0.1821163718081856
468.5,0.18256446782742275
470.0,0.18301273382247935
471.0,0.18331138040056505
472.5,0.18375911910296724
474.0,0.18420607314392054
475.5,0.18465244135604927
477.0,0.1850985874992805
478.0,0.1853960268867012
479.5,0.1858423629762068
481.0,0.18628923958773877
482.5,0.18673660135831444
484.0,0.18718396990940117
485.0,0.1874822056864814
486.5,0.1879293265442763
488.0,0.18837623028080572
489.5,0.1888231738504098
491.0,0.18926990124045034
492.0,0.18956784525549517
493.5,0.19001515942427927
495.0,0.19046292419236913
496.5,0.19091105003544603
498.0,0.1913591121190406
499.0,0.19165779393767893
500.5,0.19210568680674314
502.0,0.19255346978313093
503.5,0.19300123509514244
505.0,0.19344878563528708
506.0,0.19374712210041273
507.5,0.19419478970820125
509.0,0.19464233429639824
510.5,0.1950895039952363
512.0,0.19553616396173104
513.0,0.19583363395395642
514.5,0.19627946143802502
516.0,0.19672473939566348
517.5,0.19716974196949125
519.0,0.19761448613653673
520.5,0.19805907498199116
521.5,0.19835553429591493
523.0,0.1988004475075655
524.5,0.19924557953937802
526.0,0.19969057709363236
527.5,0.20013519281619357
528.5,0.20043135163093256
530.0,0.20087518683728184
531.5,0.20131867577117285
533.0,0.201761994073918
534.5,0.2022050677734046
535.5,0.2025002463640348
537.0,0.2029426472670307
538.5,0.20338477466270014
540.0,0.20382690037798684
541.5,0.2042690700719672
542.5,0.2045638671210454
544.0,0.20500615763681848
545.5,0.20544841754838328
547.0,0.2058907377088138
548.5,0.20633301205091195
549.5,0.20662773770244727
551.0,0.207069691730259
552.5,0.20751155576982225
554.0,0.20795346468543124
555.5,0.20839541189535496
556.5,0.20869006761251765
558.0,0.20913205890984174
559.5,0.20957415306776156
561.0,0.21001625255661815
562.5,0.21045829663435553
563.5,0.21075290996780988
565.0,0.2111950207349782
566.5,0.2116371215541436
568.0,0.21207912841003188
569.5,0.21252106432241546
570.5,0.2128155610426377
572.0,0.2132572337042867
573.5,0.21369872758677988
575.0,0.21414021539827024
576.5,0.21458151088662525
577.5,0.21487541145447409
579.0,0.21531589233939738
580.5,0.2157560079258595
582.0,0.21619596127349777
583.5,0.21663544295514708
584.5,0.21692815466339416
586.0,0.2173667048615241
587.5,0.21780442815509665
589.0,0.21824134949515514
590.5,0.21867780677937654
592.0,0.21911384036668927
593.0,0.21940435732871058
594.5,0.219840064758617
596.0,0.22027561108712163
597.5,0.2207107989808279
599.0,0.22114578784793246
600.0,0.22143562528296798
601.5,0.22187015851858827
603.0,0.2223045784378201
604.5,0.2227391770092422
606.0,0.2231741268417606
607.0,0.22346428247388442
608.5,0.2238995526763236
610.0,0.22433462944625127
611.5,0.22476944252932138
613.0,0.2252039298276617
614.0,0.22549351159449654
615.5,0.2259277440250949
617.0,0.2263619662627914
618.5,0.22679609660510955
620.0,0.22722982763207009
621.0,0.22751873320855137
622.5,0.22795215913420477
624.0,0.22838582726036544
625.5,0.22881939177209046
627.0,0.22925286435402922
628.0,0.22954194572252173
629.5,0.2299757164704588
631.0,0.23040968300884065
632.5,0.23084374587254097
634.0,0.23127787401553768
635.0,0.23156716785189171
636.5,0.23200106480715044
638.0,0.2324351009418772
639.5,0.23286932357232673
641.0,0.23330347344730218
642.0,0.23359291667406037
643.5,0.23402717920792115
645.0,0.23446146551682806
646.5,0.23489599665561048
648.0,0.23533044404947595
649.0,0.23561999620424262
650.5,0.23605430625688642
652.0,0.2364882634866411
653.5,0.23692161352012575
655.0,0.2373545525780693
656.5,0.23778725545663054
657.5,0.23807606106876666
659.0,0.2385090203445383
660.5,0.2389418820390416
662.0,0.2393747120093888
663.5,0.23980751741579936
664.5,0.24009618641879574
666.0,0.24052971475676962
667.5,0.24096356314073258
669.0,0.24139732438157213
670.5,0.24183100925514872
671.5,0.2421200901401009
673.0,0.242553524630109
674.5,0.24298705692990424
676.0,0.24342116697156505
677.5,0.24385583190844462
678.5,0.244145492906116
680.0,0.2445802382228316
681.5,0.24501568514400596
683.0,0.24545174752190696
684.5,0.24588822088007883
685.5,0.24617937818071545
687.0,0.24661623808229136
688.5,0.247053190636044
690.0,0.2474903513254477
691.5,0.24792778000290097
692.5,0.2482194546822032
694.0,0.2486569056245854
695.5,0.24909469907335532
697.0,0.24953271938052693
698.5,0.24997079660003474
699.5,0.25026289665995793
701.0,0.25070130523562617
702.5,0.2511400414700484
704.0,0.2515785093674693
705.5,0.25201666719965604
706.5,0.25230853459620095
708.0,0.2527465647481723
709.5,0.25318501576496943
711.0,0.25362370405708745
712.5,0.2540623825687643
713.5,0.2543548517469171
715.0,0.2547934425713377
716.5,0.2552321575669226
718.0,0.25567078561121503
719.5,0.2561092311353015
720.5,0.25640100581565145
722.0,0.25683861354311116
723.5,0.257276133743462
725.0,0.25771382874187715
726.5,0.258151694694165
728.0,0.25859001966649864
729.0,0.2588823166606768
730.5,0.2593211207286733
732.0,0.25975980207661975
733.5,0.26019799150368533
735.0,0.2606360936917351
736.0,0.2609280909205513
737.5,0.26136640518629445
739.0,0.2618052098622016
740.5,0.2622443502273953
742.0,0.2626835742698349
743.0,0.26297644526258046
744.5,0.263416021842845
746.0,0.2638558188613719
747.5,0.26429568354981686
749.0,0.26473545419399
750.0,0.2650286256843413
751.5,0.26546788131274407
753.0,0.2659068278410113
754.5,0.2663459413750642
756.0,0.2667850661699342
757.0,0.26707780912910206
758.5,0.26751683397193254
760.0,0.26795571121645534
761.5,0.2683944178434447
763.0,0.2688332029812554
764.0,0.2691260191065608
765.5,0.2695654556077096
767.0,0.27000473063026376
768.5,0.2704436785689405
770.0,0.27088230449726436
771.0,0.27117487637811183
772.5,0.2716141223324911
774.0,0.27205374629032963
775.5,0.2724937935530674
777.0,0.2729341243413327
778.0,0.27322779907527034
779.5,0.27366855936488166
781.0,0.2741093024603185
782.5,0.27455006807166915
784.0,0.27499090599296194
785.0,0.27528481581604486
786.5,0.27572549091959814
788.0,0.2761660418445856
789.5,0.27660671342873183
791.0,0.2770476139316408
792.0,0.2773416647392285
793.5,0.2777828546286348
795.0,0.2782243555344307
796.5,0.2786664256930365
798.0,0.27910890374588365
799.5,0.27955173221433594
800.5,0.2798472687371093
802.0,0.28029075326048547
803.5,0.2807341511468351
805.0,0.2811775814301891
806.5,0.28162119058771024
807.5,0.2819170975603138
809.0,0.28236118787725967
810.5,0.28280552578607726
812.0,0.28324970280242523
813.5,0.2836943311190145
814.5,0.28399090558807505
816.0,0.2844359258551808
817.5,0.28488135851518465
819.0,0.28532697756518177
820.5,0.2857725977969538
821.5,0.28606957797613
823.0,0.2865150917969232
824.5,0.28696070945431496
826.0,0.2874065502294146
827.5,0.2878525521808242
828.5,0.28814990183481537
830.0,0.2885961425448641
831.5,0.28904271610725113
833.0,0.2894895538411478
834.5,0.2899366283567042
835.5,0.29023468929396057
837.0,0.29068168559040236
838.5,0.291128294893807
840.0,0.29157472250214805
841.5,0.2920211307481875
842.5,0.29231889329741156
844.0,0.29276562150405194
845.5,0.2932124386686917
847.0,0.2936593669375463
848.5,0.2941064020340256
849.5,0.29440446687469224
851.0,0.2948517237038026
852.5,0.2952991547706787
854.0,0.295746714173704
855.5,0.2961942884315074
856.5,0.2964928323952227
858.0,0.29694086575994744
859.5,0.2973889468149067
861.0,0.29783712028118825
862.5,0.2982854639358204
863.5,0.2985845338887413
865.0,0.2990332888877306
866.5,0.29948238251914566
868.0,0.2999319314989787
869.5,0.30038164859685157
871.0,0.3008316423352029
872.0,0.3011318517693976
873.5,0.30158251931792845
875.0,0.3020336280282847
876.5,0.3024850586939151
878.0,0.30293694252150827
879.0,0.3032383106568701
880.5,0.30369072512863393
882.0,0.30414362631237196
883.5,0.3045966846483569
885.0,0.30504962558921483
886.0,0.3053513747679093
887.5,0.30580378326757895
889.0,0.30625602715080846
890.5,0.3067084017645159
892.0,0.3071612862303506
893.0,0.3074634535630785
894.5,0.30791724506866913
896.0,0.3083717045553201
897.5,0.3088266151651263
899.0,0.3092818634637616
900.0,0.309585440077833
901.5,0.31004083771583174
903.0,0.3104963690599497
904.5,0.3109518077882294
906.0,0.31140710841258373
907.0,0.3117106070113933
908.5,0.31216573783849555
910.0,0.312620565259176
911.5,0.31307527801114515
913.0,0.313530187783789
914.0,0.3138335220433999
915.5,0.3142886386809009
917.0,0.3147438710662256
918.5,0.31519944171351294
920.0,0.3156551760107869
921.0,0.3159591359717345
922.5,0.31641513992958076
924.0,0.31687126617731237
925.5,0.3173275725484796
927.0,0.31778402555819013
928.0,0.31808832607223353
929.5,0.3185447767651513
931.0,0.3190011020148918
932.5,0.3194573081149661
934.0,0.31991368445742896
935.5,0.3203701998390127
936.5,0.32067468957781536
938.0,0.32113207107050923
939.5,0.3215899190321092
941.0,0.3220483959865324
942.5,0.322507357126496
943.5,0.3228136360753977
945.0,0.323273667183828
946.5,0.3237343443947958
948.0,0.3241955290108735
949.5,0.3246571665863614
950.5,0.32496522199277084
952.0,0.3254276573625022
953.5,0.3258904222750334
955.0,0.3263535204486825
956.5,0.32681691448862515
957.5,0.32712597096316465
959.0,0.3275900006627272
960.5,0.32805426402039384
962.0,0.32851865843701544
963.5,0.32898282331767914
964.5,0.3292921973141218
966.0,0.3297563357190653
967.5,0.3302205708890991
969.0,0.3306852207154414
970.5,0.3311502348209331
971.5,0.33146032732686737
973.0,0.33192545476779983
974.5,0.3323907088534405
976.0,0.33285614042033956
977.5,0.3333215089447306
978.5,0.3336318650069436
980.0,0.3340974245808961
981.5,0.3345628564876736
983.0,0.3350280735891539
984.5,0.3354931824134891
985.5,0.3358031998699465
987.0,0.33626795255114367
988.5,0.3367323763485747
990.0,0.3371967281294689
991.5,0.33766130440447023
992.5,0.33797112223264314
994.0,0.33843593438674074
995.5,0.3389007111405604
997.0,0.33936566623656167
998.5,0.3398306869393899
999.5,0.3401408494631056
1001.0,0.3406062454943619
1002.5,0.34107151097852345
1004.0,0.34153654120034294
1005.5,0.34200144547426314
1007.0,0.34246653687522693
1008.0,0.342776848622723
