"Physical Time (s)","Fill Efficiency Monitor: Fill Efficiency Monitor"
0.1,0.002174919915401514
0.4,0.0021729373037743705
1.5,0.0022712716725387565
3.0,0.002716894267585842
4.75,0.0037174231713476584
5.5,0.004265357914794531
6.125,0.004772658345181642
6.625,0.005203060569671183
7.0,0.005539229119200349
7.375,0.005887393465527692
7.875,0.006368591346186499
8.25,0.006736856571292147
8.625,0.007106928945144921
9.125,0.0075989751759566225
9.5,0.007964466353692213
10.0,0.008448055037657196
11.0,0.009396864206959678
11.75,0.010092713361222624
12.5,0.01076637445089531
13.5,0.011625858876534634
14.25,0.01224597419316445
15.0,0.01284755451335131
16.0,0.013627725490778272
16.75,0.014199760382658714
18.0,0.015127519355313082
20.0,0.016551747085921543
21.5,0.017581220774909416
23.0,0.01858911345945401
25.0,0.019898917108363227
26.5,0.020858374849505045
28.0,0.021799556676444683
30.0,0.023029091602551722
31.5,0.023936767616249802
32.25,0.02438674965470213
33.25,0.02498310839665489
34.5,0.02572320521994521
36.0,0.026603383360461568
38.0,0.027761601725652736
39.25,0.028475748625094745
40.5,0.029179741003757576
42.5,0.03029091383116165
44.0,0.031114671596769335
45.5,0.031931205808262114
47.5,0.03300655316021646
49.0,0.033801260988710995
50.5,0.03458772293197668
52.5,0.03562403704386567
54.0,0.036392667945903234
55.5,0.03715311192635392
57.0,0.037906577352146274
57.75,0.038281124848607934
58.5,0.03865425634831496
59.5,0.03914943854374159
60.25,0.039518920460278134
61.5,0.04013137369825615
63.25,0.04098041999741267
64.5,0.04158052303134398
66.0,0.04229334201675494
68.0,0.04323244725219162
69.5,0.0439296916842802
71.0,0.04462258194244171
73.0,0.0455393424070737
74.5,0.04622147582410224
76.0,0.04689976339863907
78.0,0.047797752037256794
79.5,0.0484675802364007
81.0,0.04913371841928179
83.0,0.050017101343403425
84.5,0.050674642709175655
86.0,0.05132712786110199
88.0,0.05219206336121625
89.5,0.05283631507591407
91.0,0.05347681610064571
93.0,0.05432776043797792
94.5,0.054963726905191204
96.0,0.05559746748657067
98.0,0.056440398347115714
99.5,0.0570686757170254
101.0,0.057695311467261784
103.0,0.05853064694153436
104.5,0.05915606905852763
106.0,0.05978001086926331
108.0,0.060609664999889686
109.5,0.06123018432850856
111.0,0.061848792840401
113.0,0.0626709137257363
114.5,0.06328498924263046
116.0,0.06389715009663723
118.0,0.06471106758155608
119.5,0.06531723771387683
121.0,0.06591932958783399
123.0,0.0667185639522465
124.5,0.06731769021304573
126.0,0.06791620428906836
128.0,0.06871314617733526
129.5,0.06931099328021278
131.0,0.06990783804311919
133.0,0.07069979760515464
134.5,0.07129319259367385
136.0,0.07188570173460146
138.0,0.07267458810665992
139.5,0.07326552456067699
141.0,0.07385524354038317
143.0,0.07463833999052424
144.5,0.07522243011971333
146.0,0.07580462098171498
148.0,0.07658258052297323
149.5,0.07716576624537445
151.0,0.07774728385218564
153.0,0.07851872131762022
154.5,0.07909487472103927
156.0,0.0796701279335881
158.0,0.08043718344573988
159.5,0.08101113462377794
161.0,0.08158436724107603
163.0,0.08234620879510698
164.5,0.08291282141822595
166.0,0.08347912147311573
168.0,0.08423226571020292
169.5,0.0847949407852283
171.0,0.08535421522169559
173.0,0.0860955680500568
174.5,0.08664986723781802
176.0,0.08720503711681343
178.0,0.08794370657337779
179.5,0.088496038396692
181.0,0.08904665185458494
183.0,0.08977771323076325
184.5,0.09032494420753086
186.0,0.09087209900120015
188.0,0.0916001980405495
189.5,0.09214577181089888
191.0,0.0926902702397012
193.0,0.09341207787045092
194.5,0.0939533377375688
196.0,0.09449450651944996
198.0,0.09521496469176244
199.5,0.09575453761518327
201.0,0.09629373153385629
203.0,0.09701148894167586
204.5,0.09754802468735707
206.0,0.09808291377441686
208.0,0.0987943546324497
209.5,0.09932667122095172
211.0,0.09985845073828273
213.0,0.10056671006206516
214.5,0.10109587640774167
216.0,0.10162392915959216
218.0,0.1023274717068343
219.5,0.10285499267028592
221.0,0.10338260893591991
223.0,0.10408495456126628
224.5,0.10461063487784254
226.0,0.10513595280971832
228.0,0.1058351938939462
229.5,0.10635833917976106
231.0,0.1068802442933731
233.0,0.10757370661946715
234.5,0.10809284372880656
236.0,0.10861154720426992
238.0,0.10930254759061264
239.5,0.10981961920425162
241.0,0.1103358212144476
243.0,0.11102284889237728
244.5,0.11153706323442285
246.0,0.11205031402920014
248.0,0.11273399601687487
249.5,0.11324491921224143
251.0,0.11375430567085712
253.0,0.11443274130571411
254.5,0.11494117491685775
256.0,0.1154485864252794
258.0,0.1161240520000725
259.5,0.11663028285317063
261.0,0.1171360477997713
263.0,0.11780893350042516
264.5,0.11831177403003477
266.0,0.11881368766598105
268.0,0.11948212697385341
269.5,0.11998255956043521
271.0,0.12048164966597488
273.0,0.12114531389096228
274.5,0.12164291294998093
276.0,0.12214034380889298
278.0,0.12280282181141063
279.5,0.12329889915425057
281.0,0.12379428728534723
283.0,0.12445421928237241
284.5,0.12494873608446473
286.0,0.12544290369818817
288.0,0.1261010798916592
289.5,0.12659393053600054
291.0,0.12708628783647322
293.0,0.1277424621187376
294.5,0.12823460352234364
296.0,0.1287261228063216
298.0,0.12938043246090847
299.5,0.12987052786137712
301.0,0.1303603867163745
303.0,0.13101253363976215
304.5,0.13150073179848504
306.0,0.1319879455939085
308.0,0.1326373344819796
309.5,0.13312407878336674
311.0,0.13361071097633065
313.0,0.1342588456977161
314.5,0.13474418327157464
316.0,0.1352290407983885
318.0,0.13587483848098514
319.5,0.13635861324033205
321.0,0.13684201444123273
323.0,0.1374850219955365
324.5,0.13796680928537972
326.0,0.1384483055126559
328.0,0.13908922796902595
329.5,0.1395692422585317
331.0,0.14004868607214876
333.0,0.14068730058270346
334.5,0.14116580733767614
336.0,0.14164393295661293
338.0,0.14228090301552737
339.5,0.14275784318668583
341.0,0.14323402652835332
343.0,0.1438684377065588
344.5,0.144343534642187
346.0,0.14481801517656942
348.0,0.1454500222941805
349.5,0.14592375446840744
351.0,0.14639676175963692
353.0,0.14702681505544066
354.5,0.14749875309995963
356.0,0.14797048626255965
358.0,0.14859896668631925
359.5,0.14906993056662335
361.0,0.14954038471987696
363.0,0.15016700433330482
364.5,0.15063619370660972
366.0,0.1511042523109134
368.0,0.1517270795733239
369.5,0.15219326974455769
371.0,0.152658737888259
373.0,0.1532783212682652
374.5,0.15374229147153784
376.0,0.1542057897303695
378.0,0.15482479897714269
379.5,0.155289597190734
381.0,0.1557546955389722
383.0,0.15637511626688794
384.5,0.15683958184443283
386.0,0.15730374010002998
388.0,0.1579232625982692
389.5,0.15838803816277922
391.0,0.15885305146858297
393.0,0.15947301443330097
394.5,0.15993714538792736
396.0,0.1604010114746423
398.0,0.16102004683857507
399.5,0.1614844560400349
401.0,0.16194836577047841
403.0,0.1625649450336264
404.5,0.1630260398035079
406.0,0.16348671786403965
408.0,0.1641002023025255
409.5,0.16455990373412507
411.0,0.16501930145387395
413.0,0.16563063310792703
414.5,0.16608836243208758
416.0,0.16654597280847705
418.0,0.16715597207814792
419.5,0.16761319012252907
421.0,0.1680695777488181
423.0,0.1686773197818594
424.5,0.1691321678752337
426.0,0.1695864416855621
428.0,0.1701914180228033
429.5,0.17064444476531793
431.0,0.17109643145434075
432.5,0.17154728454083987
434.5,0.1721478344675795
436.0,0.17259785186594556
437.5,0.1730476570243335
439.5,0.17364746142779258
441.0,0.17409750820870626
442.5,0.17454780458633568
444.5,0.1751489974055652
446.0,0.17559980224673144
447.5,0.17604949926625157
449.5,0.1766484274549054
451.0,0.17709808171039185
452.5,0.17754759189844355
454.5,0.17814730805558326
456.0,0.17859750349247092
457.5,0.1790475484376853
459.5,0.1796471602295258
461.0,0.1800963452532488
462.5,0.18054465624222651
464.5,0.18114211814184952
466.0,0.1815901366169893
467.5,0.1820383099894118
469.5,0.18263562946852588
471.0,0.18308308121904385
472.5,0.18352988144707552
474.5,0.18412512081504168
476.0,0.18457100936404852
477.5,0.18501689777234645
479.5,0.18561161175836063
481.0,0.18605830082096794
482.5,0.18650549503947697
484.5,0.1871016426781764
486.0,0.18754848698668009
487.5,0.1879954636845877
489.5,0.18859082349001152
491.0,0.18903742457318937
492.5,0.18948443829029463
494.5,0.19008108694384912
496.0,0.19052895871570327
497.5,0.19097667170109417
499.5,0.19157336646177428
501.0,0.1920208003478904
502.5,0.1924682011737627
504.5,0.19306452860837672
506.0,0.19351203996494734
507.5,0.19395966027529432
509.5,0.19455613164049157
511.0,0.19500310047107644
512.5,0.19544952739993846
514.5,0.1960437918303122
516.0,0.19648896151975204
517.5,0.19693380324100923
519.5,0.19752650535383726
521.0,0.19797104558999587
522.5,0.19841569386408375
524.5,0.1990087691365771
526.0,0.1994535589200851
527.5,0.19989790693441617
529.5,0.20048970977774705
531.0,0.20093311987858256
532.5,0.20137638904903626
534.5,0.2019669143881952
536.0,0.20240951689138834
537.5,0.20285183372902565
539.5,0.20344134125240426
541.0,0.20388363921831862
542.5,0.2043259423870945
544.5,0.20491561175666465
546.0,0.2053577548493845
547.5,0.20579980053597782
549.5,0.20638925380949943
551.0,0.206831311642754
552.5,0.2072732183524652
554.5,0.20786257945420716
556.0,0.208304757516744
557.5,0.20874683364207047
559.5,0.2093361746268982
561.0,0.2097782747122108
562.5,0.2102205747449841
564.5,0.21081041461333716
566.0,0.21125256113661323
567.5,0.21169448714602512
569.5,0.2122835224542371
571.0,0.21272506391631463
572.5,0.21316647647044176
574.5,0.21375485768870295
576.0,0.21419573154728802
577.5,0.21463628397544185
579.5,0.21522331576965437
581.0,0.21566321180263104
582.5,0.21610262040809616
584.5,0.21668736843142203
586.0,0.2171252965215109
587.5,0.21756259678315149
589.5,0.21814461990908782
591.0,0.21858059721530299
592.5,0.21901625340161515
594.5,0.21959678292100024
596.0,0.22003201844810996
597.5,0.22046730408809503
599.5,0.22104737424657836
601.0,0.22148213516616092
602.5,0.2219167580476992
604.5,0.2224966927131814
606.0,0.22293219700767702
607.5,0.2233678540231966
609.5,0.2239485695504398
611.0,0.22438409922805
612.5,0.22481933311665722
614.5,0.2253993966254957
616.0,0.22583436182069908
617.5,0.2262690151579539
619.5,0.22684813283029454
621.0,0.22728240586115414
622.5,0.22771672538354534
624.5,0.22829573843211962
626.0,0.22873016913783475
627.5,0.2291648356583128
629.5,0.22974452053290634
631.0,0.23017933259193443
632.5,0.23061423331048356
634.5,0.23119384962094722
636.0,0.23162815098169434
637.5,0.23206230519718385
639.5,0.23264111033049079
641.0,0.23307546691182962
642.5,0.23350986271123939
644.5,0.2340890377293806
646.0,0.2345237458742577
647.5,0.2349583575235628
649.5,0.23553777039016574
651.0,0.23597178602567578
652.5,0.23640495378738063
654.5,0.2369816797329379
656.0,0.2374142061237893
657.5,0.23784704518626454
659.5,0.23842386541896207
661.0,0.23885641629889778
662.5,0.23928890572182265
664.5,0.23986591085758177
666.0,0.24029909723014595
667.5,0.24073262784139637
669.5,0.24131072802376077
671.0,0.2417445196900366
672.5,0.24217863353741484
674.5,0.24275821907959808
676.0,0.24319355261673853
677.5,0.24362873526357867
679.5,0.24420932047115862
681.0,0.24464549822646173
682.5,0.2450820396606327
684.5,0.24566435011102444
686.0,0.246101045301719
687.5,0.24653761922566478
689.5,0.2471201886711849
691.0,0.24755790502529934
692.5,0.24799562936182742
694.5,0.24858013374783952
696.0,0.24901902421177463
697.5,0.2494578681575829
699.5,0.25004295761139844
701.0,0.2504819958702729
702.5,0.25092104549293964
704.5,0.25150577810294483
706.0,0.25194400020689833
707.5,0.25238265562075013
709.5,0.25296797939758175
711.0,0.2534071394781947
712.5,0.25384640247358436
714.5,0.2544323314572667
716.0,0.254871703594947
717.5,0.2553109299385132
719.5,0.25589591637124504
721.0,0.25633463955899416
722.5,0.25677347274206624
724.5,0.2573589869012504
726.0,0.25779825808113066
727.5,0.25823752554584867
729.5,0.25882365097228927
731.0,0.2592634082163434
732.5,0.25970295515541103
734.5,0.2602887458412249
736.0,0.2607281760041918
737.5,0.26116790430349707
739.5,0.2617544473948648
741.0,0.2621944369052773
742.5,0.2626346884876737
744.5,0.2632219042937946
746.0,0.26366229528757945
747.5,0.2641026417212315
749.5,0.2646892919926796
751.0,0.2651286581852816
752.5,0.26556808370165
754.5,0.2661542273353253
756.0,0.26659356521091393
757.5,0.2670328715952567
759.5,0.2676184949745908
761.0,0.2680575290563794
762.5,0.26849684631920023
764.5,0.26908280281799923
766.0,0.2695219712121792
767.5,0.2699609581544323
769.5,0.2705459799808303
771.0,0.27098497842865693
772.5,0.27142422331907734
774.5,0.2720103268079379
776.0,0.2724503548732665
777.5,0.2728906172540704
779.5,0.2734779113438308
781.0,0.2739184972882786
782.5,0.2743591498270164
784.5,0.2749468029513599
786.0,0.27538764972207497
787.5,0.27582839118400815
789.5,0.27641620848613074
791.0,0.27685724189160477
792.5,0.2772985181267895
794.5,0.2778875669733705
796.0,0.27832991034427035
797.5,0.2787728975720456
799.5,0.27936389291685443
801.0,0.27980736639577847
802.5,0.2802507569840914
804.5,0.28084208213712886
806.0,0.2812856434776577
807.5,0.2817293303483851
809.5,0.2823211916365471
811.0,0.2827657435459885
812.5,0.2832105391590482
814.5,0.2838037097743895
816.0,0.2842488498335787
817.5,0.28469414896805156
819.5,0.2852880368788372
821.0,0.28573349024183436
822.5,0.28617893701963876
824.5,0.2867731911540581
826.0,0.28721881700280727
827.5,0.2876645320349963
829.5,0.28825912953013016
831.0,0.28870546281909554
832.5,0.289152182230974
834.5,0.28974821725649913
836.0,0.2901951145111378
837.5,0.2906417240488748
839.5,0.29123701778838723
841.0,0.29168341904884093
842.5,0.2921298203042689
844.5,0.2927252403623107
846.0,0.2931719150089749
847.5,0.2936187578167513
849.5,0.29421480784114223
851.0,0.29466189774678386
852.5,0.2951092717679634
854.5,0.29570621376550726
856.0,0.2961542553681865
857.5,0.29660244718890705
859.5,0.2972001205750272
861.0,0.29764848267439176
862.5,0.298097073575892
864.5,0.29869512589377906
866.0,0.29914383381073023
867.5,0.2995928041933972
869.5,0.3001917915509301
871.0,0.3006415638554791
872.5,0.3010917010193502
874.5,0.3016925098526296
876.0,0.30214366902970097
877.5,0.30259530696139975
879.5,0.3031980769376105
881.0,0.3036503829909902
882.5,0.3041027877945106
884.5,0.3047057665855557
886.0,0.3051575171681951
887.5,0.30560908958707045
889.0,0.3060607722415272
891.0,0.3066637766078695
892.5,0.30711668143911725
894.0,0.3075702439910825
896.0,0.30817601759191715
897.5,0.3086308315484017
899.0,0.3090859660329987
901.0,0.30969320415525414
902.5,0.31014875067179626
904.0,0.3106042543246202
906.0,0.31121146802770827
907.5,0.31166670521531387
909.0,0.31212156504092087
911.0,0.31272765703822203
912.5,0.31318232111751737
914.0,0.31363707887037917
916.0,0.31424375755008255
917.5,0.31469896811037096
919.0,0.3151543185744914
921.0,0.3157614922631515
922.5,0.3162169287795291
924.0,0.316672664829951
926.0,0.31728063512384574
927.5,0.31773662729859464
929.0,0.3181926681639943
931.0,0.3188006555195681
932.5,0.31925675579952917
934.0,0.31971300922732016
936.0,0.3203216986131342
937.5,0.3207789800537008
939.0,0.3212368220078336
941.0,0.32184808636956236
942.5,0.3223073813688711
944.0,0.3227674377675963
946.0,0.3233816023458433
947.5,0.3238427957354922
949.0,0.32430442644888224
951.0,0.32492075303576906
952.5,0.32538344278609566
954.0,0.32584654451053024
956.0,0.3264643108629122
957.5,0.3269279532128595
959.0,0.3273918774739316
961.0,0.3280106711746661
962.5,0.3284749498189474
964.0,0.3289392512760558
966.0,0.32955877838329534
967.5,0.33002361898978716
969.0,0.3304886924806872
971.0,0.33110897795057537
972.5,0.3315741002099077
974.0,0.3320393391487332
976.0,0.3326597503356096
977.5,0.33312510361466174
979.0,0.33359056404790566
981.0,0.3342111496199481
982.5,0.3346765807329686
984.0,0.3351419255640587
986.0,0.3357620664173318
987.5,0.3362269153100221
989.0,0.3366916289290539
991.0,0.33731115307663395
992.5,0.3377758793885642
994.0,0.338240691445438
996.0,0.33886049551929354
997.5,0.3393256102832637
999.0,0.33979099729312157
1001.0,0.3404113682893127
1002.5,0.34087651071400793
1004.0,0.341341427888964
1006.0,0.3419612757624015
1007.5,0.3424265524882596
1009.0,0.34289190782697115
1011.0,0.3435129154172777
1012.5,0.3439790053496542
1014.0,0.34444534159001233
1016.0,0.3450676589192285
1017.5,0.3455349855266275
1019.0,0.3460025673484963
1021.0,0.3466266365488859
1022.5,0.3470948758532471
1024.0,0.3475633550577102
1026.0,0.348188872311717
1027.5,0.34865857236703623
1029.0,0.349128785529273
1031.0,0.3497565163971858
1032.5,0.35022775305417403
1034.0,0.3506992773417758
1036.0,0.3513282830759864
1037.5,0.35180027054103236
1039.0,0.3522723923435383
1041.0,0.3529021577392333
1042.5,0.35337459433916946
1044.0,0.35384704440709613
1046.0,0.3544772038519598
1047.5,0.3549501112666205
1049.0,0.3554231553293934
1051.0,0.3560539796844445
1052.5,0.356526813054468
1054.0,0.3569994029435837
1056.0,0.35762900429521205
1057.5,0.358100945134344
1059.0,0.3585726095057415
1061.0,0.35920142280043715
1062.5,0.3596730126246996
1064.0,0.3601445950226503
1066.0,0.36077319389027496
1067.5,0.3612446295783134
1069.0,0.3617158319334728
1071.0,0.3623439975617883
1072.5,0.36281501123434523
1074.0,0.3632860718057385
1076.0,0.36391430417584
1077.5,0.3643857042109685
1079.0,0.3648569509589033
1081.0,0.365485246919812
1082.5,0.36595631176752974
1084.0,0.36642766099322177
1086.0,0.3670567008217744
1087.5,0.36752848088138407
1089.0,0.36800039492113934
1091.0,0.3686295788395192
1092.5,0.369101567241393
1094.0,0.36957382843968306
1096.0,0.3702039608873289
1097.5,0.3706769634836199
1099.0,0.3711501702687575
1101.0,0.3717814808783573
1102.5,0.372254754829005
1104.0,0.37272795101577116
1106.0,0.37335846750957763
1107.5,0.3738308457241702
1109.0,0.3743026282446691
1111.0,0.3749309981271138
1112.5,0.375402259534171
1114.0,0.37587398912671993
1116.0,0.3765034525488201
1117.5,0.3769756547551245
1119.0,0.3774477762001808
1121.0,0.378077484299194
1122.5,0.3785500311242856
1124.0,0.37902313256925046
1126.0,0.37965485956041406
1127.5,0.38012986229034096
1129.0,0.38060597560183324
1131.0,0.3812422486873046
1132.5,0.3817200823348456
1134.0,0.3821983235230018
1136.0,0.3828362555703096
1137.5,0.3833150550341431
1139.0,0.38379399142295106
1141.0,0.3844325224095481
1142.5,0.3849110717343461
1144.0,0.38538992025544005
1146.0,0.38602865331853015
1147.5,0.38650793563339336
1149.0,0.38698770262340604
1151.0,0.38762812271184477
1152.5,0.38810880106829376
1154.0,0.38858949272517385
1156.0,0.38923032599905644
1157.5,0.3897108028620156
1159.0,0.3901908478282532
1161.0,0.3908297924589358
1162.5,0.3913078138334227
1164.0,0.3917848928593356
1166.0,0.39242014472944203
1167.5,0.3928965396703434
1169.0,0.3933726906791339
1171.0,0.39400682199284015
1172.5,0.3944824672024528
1174.0,0.39495798569982093
1176.0,0.3955917266129213
1177.5,0.39606680678300576
1179.0,0.3965417369086735
1181.0,0.3971751061923015
1182.5,0.397650411049203
1184.0,0.3981259719383371
1186.0,0.3987604907485814
1187.5,0.3992365199589465
1189.0,0.39971274621415337
1191.0,0.40034787640852926
1192.5,0.40082401808468376
1194.0,0.4012999693504289
1196.0,0.4019345428014424
1197.5,0.4024108763116922
1199.0,0.4028872097419481
1201.0,0.40352197815820395
1202.5,0.4039977292761157
1204.0,0.4044730953431864
1206.0,0.40510623750348335
1207.5,0.40558054924288744
1209.0,0.40605424792307093
1211.0,0.40668503822855867
