"Physical Time (s)","Fill Efficiency Monitor: Fill Efficiency Monitor"
0.25,0.009457331825907866
0.875,0.0104367946566455
1.2500000000000002,0.011762752143926506
1.4500000000000004,0.012714595337721941
1.6500000000000006,0.013852614464381323
1.8500000000000008,0.01517313330746593
2.000000000000001,0.016294468639705673
2.2,0.017960281013614167
2.3999999999999995,0.019801910111570804
2.499999999999999,0.020782109459762048
2.5999999999999988,0.021801852429421998
2.6749999999999985,0.022593021220717355
2.774999999999998,0.023683388672585244
2.874999999999998,0.024810947255675474
2.9749999999999974,0.025978495724788428
3.074999999999997,0.027185893250775355
3.149999999999997,0.02811773453282738
3.2499999999999964,0.029393210248867912
3.349999999999996,0.030703226046211483
3.4499999999999957,0.032048123771969014
3.5499999999999954,0.03342998161692138
3.624999999999995,0.034492541904919426
3.7249999999999948,0.03594460045122066
3.8249999999999944,0.037438516792896066
3.924999999999994,0.03897430430508096
4.024999999999994,0.04055332591502159
4.099999999999995,0.04176667126472397
4.199999999999997,0.043422632967347566
4.299999999999998,0.04512074824247975
4.3999999999999995,0.04685877596468013
4.500000000000001,0.04863430572182495
4.575000000000002,0.04999001248156287
4.640000000000002,0.051180973695304034
4.720000000000001,0.0526645129833826
4.799999999999999,0.054167828098667485
4.879999999999997,0.055693553652787546
4.939999999999996,0.05685366889964464
5.019999999999994,0.05841956140164533
5.0999999999999925,0.06000906378976587
5.179999999999991,0.06162342067941883
5.259999999999989,0.06326228645766341
5.319999999999988,0.06450633804598457
5.399999999999986,0.06618350006958461
5.479999999999984,0.06788178492996268
5.539999999999983,0.06916944069790212
5.579999999999982,0.07003439338382653
5.609999999999982,0.07068695875588922
5.649999999999981,0.07156215550901078
5.68999999999998,0.07244321114696207
5.729999999999979,0.07333012232998667
5.769999999999978,0.07422289486815702
5.799999999999978,0.07489616698298524
5.839999999999977,0.07579852859154161
5.879999999999976,0.07670606579232227
5.919999999999975,0.0776187702503119
5.959999999999974,0.078537003060446
5.989999999999974,0.07922949124393106
6.029999999999973,0.08015788024189052
6.069999999999972,0.0810919017798924
6.109999999999971,0.08203128962854882
6.14999999999997,0.08297566524582849
6.189999999999969,0.08392481602942836
6.219999999999969,0.08463971946398388
6.259999999999968,0.08559686722800378
6.299999999999967,0.08655814790924626
6.339999999999966,0.08752330703251304
6.379999999999965,0.08849217340468242
6.409999999999965,0.0892212218405664
6.449999999999964,0.09019616546981891
6.489999999999963,0.09117389421512254
6.529999999999962,0.092153703593235
6.569999999999961,0.0931352638375865
6.599999999999961,0.09387249743461333
6.63999999999996,0.09485635199809005
6.679999999999959,0.09584053207359453
6.719999999999958,0.09682471646386678
6.759999999999957,0.09780922691002433
6.7899999999999565,0.09854788579977132
6.829999999999956,0.09953323669612293
6.869999999999955,0.10051900241115234
6.909999999999954,0.10150500417131766
6.949999999999953,0.1024908294489942
6.9799999999999525,0.10322985690984854
7.019999999999952,0.1042147649935731
7.059999999999951,0.10519932423067739
7.09999999999995,0.10618373947301357
7.139999999999949,0.10716800054855874
7.169999999999948,0.10790589403737809
7.209999999999948,0.10888939979491405
7.249999999999947,0.10987280142478147
7.289999999999946,0.11085604096833318
7.329999999999945,0.1118389440624947
7.359999999999944,0.112575702650384
7.389999999999944,0.11331190949216403
7.409999999999943,0.11380261641618931
7.429999999999943,0.11429351392832293
7.4499999999999424,0.11478461445953356
7.464999999999942,0.1151530264562631
7.484999999999942,0.11564424496045594
7.504999999999941,0.11613543900954117
7.524999999999941,0.11662672418493049
7.54499999999994,0.11711824856016027
7.55999999999994,0.11748704507865283
7.57999999999994,0.11797883423208419
7.599999999999939,0.11847077655038239
7.619999999999939,0.11896288135807284
7.639999999999938,0.11945510967792593
7.654999999999938,0.11982432945071382
7.674999999999938,0.12031668492337964
7.694999999999937,0.12080913550044328
7.714999999999937,0.12130168637367775
7.734999999999936,0.12179436047959362
7.749999999999936,0.12216397967928115
7.769999999999936,0.1226570286835714
7.789999999999935,0.12315028455719984
7.829999999999934,0.12413755726668123
7.8699999999999335,0.12512551832179683
7.909999999999933,0.1261141961937756
7.939999999999932,0.12685608517878189
7.979999999999931,0.1278457562656946
8.01999999999993,0.1288356021020244
8.05999999999993,0.12982540476166024
8.099999999999929,0.13081514223203003
8.129999999999928,0.13155730123101358
8.169999999999927,0.1325466501749231
8.199999999999928,0.13328856588877538
8.219999999999931,0.13378312982762217
8.239999999999934,0.1342776965149856
8.254999999999937,0.13464859994961237
8.27499999999994,0.13514305388159686
8.294999999999943,0.13563736114321118
8.314999999999946,0.13613147069861617
8.33499999999995,0.13662533395546217
8.349999999999952,0.13699558995062916
8.369999999999955,0.1374890954766446
8.389999999999958,0.1379824157626533
8.409999999999961,0.13847549411642013
8.429999999999964,0.1389682890606306
8.444999999999967,0.13933768618731723
8.469999999999969,0.13995287022298883
8.509999999999968,0.14093579683836013
8.549999999999967,0.14191692202478604
8.589999999999966,0.14289600536309932
8.619999999999965,0.14362889783189345
8.659999999999965,0.14460433935138625
8.699999999999964,0.14557768543848407
8.719999999999967,0.14606352601183098
8.73999999999997,0.14654865986771773
8.754999999999972,0.14691209791781493
8.774999999999975,0.14739624025704187
8.794999999999979,0.14787996188721944
8.814999999999982,0.14836326711080786
8.834999999999985,0.14884615626719477
8.849999999999987,0.14920805912705304
8.86999999999999,0.1496902746349614
8.889999999999993,0.1501721254496327
8.909999999999997,0.15065357337908633
8.93,0.15113457040374884
8.945000000000002,0.1514950019362573
8.965000000000005,0.15197513161567855
8.985000000000008,0.15245472060000914
9.005000000000011,0.1529337043578662
9.025000000000015,0.15341206004994237
9.040000000000017,0.15377041258063628
9.06000000000002,0.15424767050486193
9.080000000000023,0.15472431560534794
9.100000000000026,0.15520035955519113
9.12000000000003,0.15567578804331303
9.14000000000003,0.15615056318402268
9.18000000000003,0.15709810823634937
9.220000000000029,0.15804315080972367
9.260000000000028,0.15898561446310813
9.300000000000027,0.15992543972108814
9.340000000000027,0.1608631508668029
9.370000000000026,0.16156536273909167
9.410000000000025,0.162500342975507
9.450000000000024,0.16343408039631543
9.490000000000023,0.16436669093253778
9.530000000000022,0.16529810182253726
9.560000000000022,0.16599585552461865
9.600000000000021,0.1669250504369401
9.64000000000002,0.16785312364312346
9.68000000000002,0.16878034803324488
9.720000000000018,0.16970649659891718
9.750000000000018,0.17040020664692535
9.790000000000017,0.17132389507613327
9.830000000000016,0.17224583665684673
9.870000000000015,0.1731660048467066
9.910000000000014,0.17408457079553172
9.940000000000014,0.17477250409207132
9.980000000000013,0.17568832014213415
10.020000000000012,0.1766026980411372
10.060000000000011,0.1775157170409054
10.10000000000001,0.17842746444816196
10.13000000000001,0.1791104547967366
10.170000000000009,0.18001991659092373
10.210000000000008,0.1809280544264048
10.250000000000007,0.18183487825204936
10.290000000000006,0.18274037997042514
10.320000000000006,0.18341866031771606
10.400000000000004,0.18522367595374553
10.480000000000002,0.18702403526956674
10.56,0.1888204257311382
10.639999999999999,0.1906124123089364
10.699999999999998,0.191952981682836
10.779999999999996,0.19373548007597252
10.859999999999994,0.19551155876191867
10.939999999999992,0.1972813114910936
11.01999999999999,0.1990443271170256
11.07999999999999,0.20036137427867112
11.159999999999988,0.20210943961195932
11.239999999999986,0.2038484522466841
11.289999999999985,0.20493078053806862
11.329999999999984,0.20579388090511924
11.359999999999983,0.206439501143656
11.399999999999983,0.20729818862287466
11.439999999999982,0.20815460281661866
11.47999999999998,0.20900858737786646
11.51999999999998,0.20986012155809364
11.54999999999998,0.21049712416999228
11.589999999999979,0.21134427275470663
11.629999999999978,0.21218893717557294
11.669999999999977,0.21303122676437788
11.709999999999976,0.2138712072124979
11.739999999999975,0.21449970299982532
11.779999999999974,0.21533571598328505
11.819999999999974,0.21616960380856684
11.859999999999973,0.21700128853096043
11.899999999999972,0.21783068544655657
11.929999999999971,0.21845110997541783
11.96999999999997,0.2192760064238946
12.00999999999997,0.22009807427232653
12.049999999999969,0.22091721558975513
12.089999999999968,0.2217333711719489
12.129999999999967,0.2225464426924285
12.159999999999966,0.22315423908601098
12.199999999999966,0.2239620630119494
12.239999999999965,0.2247669701756021
12.279999999999964,0.2255690106012533
12.319999999999963,0.22636819908493186
12.359999999999962,0.22716433474949638
12.43999999999996,0.22874736104803384
12.519999999999959,0.23031848276839625
12.599999999999957,0.23187793286469294
12.679999999999955,0.23342649657900957
12.739999999999954,0.2345809359620897
12.819999999999952,0.23611151084510756
12.89999999999995,0.2376329097221796
12.979999999999949,0.23914545231918868
13.059999999999947,0.24064894245271093
13.119999999999946,0.24177036805178287
13.199999999999944,0.2432574472191557
13.279999999999943,0.24473511795979747
13.35999999999994,0.24620359068846218
13.439999999999939,0.24766264982111852
13.499999999999938,0.24875037883359805
13.579999999999936,0.2501916148836391
13.659999999999934,0.25162274001481033
13.739999999999933,0.2530440302154641
13.819999999999931,0.25445530786654297
13.87999999999993,0.2555074921636057
13.959999999999928,0.25690286834347276
14.039999999999926,0.2582897328407846
14.119999999999925,0.25966862692265813
14.199999999999923,0.26103895714571157
14.259999999999922,0.262060811505767
14.33999999999992,0.2634155910794101
14.419999999999918,0.26476237810708425
14.499999999999917,0.2661013540394618
14.579999999999915,0.2674320607017215
14.639999999999914,0.26842429424745384
14.689999999999912,0.26924737075915733
14.729999999999912,0.2699033966402745
14.76999999999991,0.27055715467663033
14.80999999999991,0.2712086313271769
14.83999999999991,0.27169573797512137
14.879999999999908,0.27234307375239714
14.919999999999908,0.2729878907906855
14.959999999999907,0.27363022045704655
14.999999999999906,0.2742701021687458
15.029999999999905,0.27474840670887024
15.069999999999904,0.27538409354284726
15.109999999999904,0.27601743053169486
15.149999999999903,0.27664848198876196
15.189999999999902,0.27727729682749047
15.219999999999901,0.27774745252921473
15.2599999999999,0.27837238953868093
15.2999999999999,0.27899516429703286
15.339999999999899,0.27961586075581
15.379999999999898,0.2802345196130133
15.419999999999897,0.2808510640810174
15.449999999999896,0.2813120738745913
15.489999999999895,0.2819248317357025
15.529999999999895,0.2825353397325412
15.569999999999894,0.28314365961375093
15.609999999999893,0.2837498393907924
15.639999999999892,0.28420305223777503
15.679999999999891,0.2848055479208749
15.71999999999989,0.28540609185108784
15.75999999999989,0.2860046510079203
15.799999999999889,0.28660125601019404
15.829999999999888,0.2870473279361731
15.869999999999887,0.28764038080976134
15.909999999999886,0.2882314735742169
15.949999999999886,0.28882063209357234
15.989999999999885,0.28940790341614914
16.019999999999886,0.28984703947116586
16.059999999999892,0.2904308581835646
16.0999999999999,0.2910126490704328
16.139999999999905,0.2915923661650031
16.17999999999991,0.29217002842233186
16.209999999999916,0.2926019498285806
16.249999999999922,0.29317609450672844
16.289999999999928,0.29374825530969445
16.329999999999934,0.2943184878836576
16.36999999999994,0.29488684632639983
16.399999999999945,0.29531195773522334
16.43999999999995,0.2958772813635687
16.479999999999958,0.2964409418663497
16.519999999999964,0.2970029096523401
16.55999999999997,0.2975631116454127
16.589999999999975,0.2979821346431288
16.62999999999998,0.29853934438693386
16.669999999999987,0.29909479106961945
16.709999999999994,0.29964846446008137
16.75,0.3002002559319298
16.780000000000005,0.300612862599182
16.82000000000001,0.301161464442673
16.860000000000017,0.3017082266197362
16.900000000000023,0.3022533050952022
16.94000000000003,0.30279657164977564
16.970000000000034,0.30320292497299156
17.01000000000004,0.30374329191217264
17.050000000000047,0.30428223509059493
17.090000000000053,0.304819482189809
17.13000000000006,0.30535535716818024
17.160000000000064,0.30575613497840687
17.20000000000007,0.3062890931731135
17.240000000000077,0.30682051166786234
17.280000000000083,0.3073502381132612
17.32000000000009,0.30787839271769857
17.350000000000094,0.30827344827526315
17.3900000000001,0.3087986420383114
17.430000000000106,0.30932196511973287
17.470000000000113,0.30984328949559375
17.51000000000012,0.3103625246785637
17.550000000000125,0.3108797638508015
17.58000000000013,0.3112664664785026
17.620000000000136,0.311780474580868
17.660000000000142,0.31229276396124417
17.70000000000015,0.312803339600299
17.740000000000155,0.313312241420002
17.77000000000016,0.31369284232571376
17.810000000000166,0.3141989797626978
17.850000000000172,0.3147036172615256
17.890000000000178,0.3152067488448909
17.930000000000184,0.3157084263264631
17.96000000000019,0.3160837736132995
18.000000000000195,0.3165830218311883
18.0400000000002,0.3170807937526213
18.080000000000208,0.3175771231489913
18.120000000000214,0.31807214389527766
18.15000000000022,0.31844257549714006
18.190000000000225,0.31893531221678967
18.23000000000023,0.3194267242388532
18.270000000000238,0.31991680241292353
18.310000000000244,0.32040553801109684
18.34000000000025,0.32077117226038787
18.380000000000255,0.3212575007296159
18.42000000000026,0.321742378776561
18.460000000000267,0.3222259076575937
18.500000000000274,0.3227081170282815
18.53000000000028,0.32306892334608683
18.570000000000285,0.32354888180369734
18.61000000000029,0.3240275441591628
18.650000000000297,0.32450490343974775
18.690000000000303,0.32498091728102557
18.720000000000308,0.32533703080183207
18.760000000000314,0.3258107068304661
18.80000000000032,0.326283068442281
18.840000000000327,0.3267540895484337
18.880000000000333,0.3272237766252492
18.910000000000338,0.32757516904370826
18.950000000000344,0.32804253360088287
18.99000000000035,0.32850856271279766
19.030000000000356,0.32897322266461915
19.070000000000363,0.32943660330895863
19.100000000000367,0.32978329136647844
19.140000000000374,0.33024450164471447
19.18000000000038,0.3307044414057979
19.220000000000386,0.331163202419233
19.260000000000392,0.33162088584462296
19.290000000000397,0.3319633516804448
19.330000000000403,0.332419135397624
19.37000000000041,0.3328738647261014
19.410000000000416,0.3333275340033664
19.450000000000422,0.3337801144806463
19.480000000000427,0.3341188405004404
19.520000000000433,0.3345695670048596
19.56000000000044,0.33501925897794244
19.600000000000446,0.335467858233205
19.64000000000045,0.3359154468976954
19.670000000000456,0.33625048558598736
19.710000000000463,0.3366963480136324
19.75000000000047,0.33714118931038634
19.790000000000475,0.33758499384495555
19.83000000000048,0.33802786007425645
19.870000000000488,0.3384697905629632
19.900000000000492,0.33880058109005895
19.9400000000005,0.3392407169014826
19.980000000000505,0.3396797988242291
20.02000000000051,0.34011776517744285
20.060000000000517,0.3405546247288406
20.090000000000522,0.3408815316981609
20.13000000000053,0.34131654683023555
20.170000000000535,0.3417505384763348
20.21000000000054,0.3421835545808635
20.250000000000547,0.34261563460615235
20.280000000000552,0.3429390542905169
20.320000000000558,0.34336949083989177
20.360000000000564,0.3437989634677734
20.40000000000057,0.3442275547055082
20.440000000000577,0.3446551992673306
20.47000000000058,0.3449753401786686
20.510000000000588,0.3454013757535946
20.550000000000594,0.3458265170558542
20.5900000000006,0.3462506486802519
20.630000000000607,0.34667379940125537
20.66000000000061,0.346990563912335
20.700000000000617,0.34741194976876943
20.740000000000624,0.34783211521403556
20.78000000000063,0.34825120173305335
20.820000000000636,0.3486693088637291
20.85000000000064,0.34898225940539845
20.890000000000647,0.3493987016588509
20.930000000000653,0.3498141785037071
20.965000000000657,0.35017688925663504
20.985000000000653,0.35038382413420943
21.00000000000065,0.35053883537319036
21.020000000000646,0.3507452821952038
21.040000000000642,0.35095145935370126
21.060000000000638,0.3511573525910344
21.080000000000634,0.3513629655347121
21.09500000000063,0.35151700127335245
21.115000000000627,0.35172214098049454
21.135000000000623,0.3519270144171101
21.15500000000062,0.35213161803387744
21.175000000000615,0.3523359536412388
21.190000000000612,0.3524890238278457
21.21000000000061,0.3526928887896077
21.230000000000604,0.35289648126773115
21.2500000000006,0.3530998000085667
21.270000000000596,0.3533028477481821
21.285000000000593,0.3534549577515751
21.30500000000059,0.35365755446562197
21.325000000000585,0.3538598995571205
21.34500000000058,0.35406198217878315
21.365000000000578,0.35426382235566045
21.380000000000575,0.35441504898185244
21.40000000000057,0.3546164582904536
21.420000000000567,0.3548176478276634
21.440000000000563,0.3550185950683333
21.46000000000056,0.3552192995487576
21.480000000000555,0.3554197669250029
21.49500000000055,0.3555699605151719
21.515000000000548,0.35577001499634564
21.535000000000544,0.3559698354988645
21.55500000000054,0.35616941165922344
21.575000000000536,0.35636873468456104
21.590000000000533,0.3565180790546843
21.61000000000053,0.3567170014747009
21.630000000000525,0.35691567521582535
21.65000000000052,0.3571141224966675
21.670000000000517,0.3573123393260376
21.685000000000514,0.3574608517601831
21.70500000000051,0.35765865934496927
21.725000000000506,0.357856239055723
21.745000000000502,0.358053587262393
21.765000000000498,0.35825071151564547
21.780000000000495,0.3583984062012156
21.80000000000049,0.3585951401807991
21.820000000000487,0.3587916559353352
21.840000000000483,0.35898796591514376
21.86000000000048,0.3591840695387182
21.875000000000476,0.3593310036140147
21.895000000000472,0.3595267283320931
21.915000000000468,0.3597222373057229
21.935000000000464,0.35991750613472506
21.95500000000046,0.36011255534732284
21.970000000000457,0.3602587300500402
21.990000000000453,0.3604534268145183
22.01000000000045,0.36064793799706796
22.030000000000445,0.3608422383688167
22.05000000000044,0.3610363255826692
22.06500000000044,0.36118176477555974
22.085000000000434,0.3613755387957038
22.10500000000043,0.36156912400838126
22.125000000000426,0.3617625140571752
22.145000000000422,0.36195566700232495
22.16000000000042,0.362100405818799
22.180000000000415,0.36229323997663626
22.20000000000041,0.3624858447928884
22.220000000000407,0.3626782753683101
22.240000000000403,0.36287049017075407
22.2550000000004,0.36301452489962355
22.275000000000396,0.3632064063814331
22.295000000000393,0.3633980785880468
22.31500000000039,0.3635895654243498
22.335000000000385,0.36378085023469575
22.35000000000038,0.36392419023567735
22.370000000000378,0.3641151317316694
22.390000000000374,0.36430588328491903
