"Physical Time (s)","Fill Efficiency Monitor: Fill Efficiency Monitor"
0.25,0.009456974650511709
1.3500000000000003,0.01220701859988443
1.8000000000000007,0.014815305674522758
2.225,0.018165611067791514
2.4499999999999993,0.020261041277926446
2.6749999999999985,0.022566685537943672
2.9249999999999976,0.02536298797310284
3.149999999999997,0.028090781621318905
3.399999999999996,0.03134430277780603
3.624999999999995,0.0344647905146499
3.8499999999999943,0.03778950557784199
4.099999999999995,0.04173719816977714
4.324999999999998,0.045520689993684194
4.575000000000002,0.04995843425317943
4.739999999999998,0.053005946412307874
4.919999999999995,0.05643187234125543
5.11999999999999,0.060375045947238776
5.2999999999999865,0.064053327281612
5.499999999999982,0.06827148141152407
5.679999999999978,0.07218661448571166
5.859999999999975,0.07621787019352394
6.039999999999972,0.0803593853037536
6.219999999999968,0.08461515190949011
6.4199999999999635,0.08946618595289912
6.59999999999996,0.09392915794003111
6.779999999999956,0.09846752695286964
6.899999999999953,0.10153294964118731
6.989999999999951,0.10385049685912902
7.0799999999999494,0.10618409430472338
7.179999999999947,0.10879649554232602
7.269999999999945,0.11116527063249902
7.369999999999943,0.11381292085834181
7.459999999999941,0.11620882498123213
7.549999999999939,0.11861525559560045
7.649999999999937,0.12129857581067871
7.739999999999935,0.12371974106604658
7.839999999999933,0.12641716137460002
7.929999999999931,0.12884714652693763
8.01999999999993,0.13127644447019582
8.119999999999928,0.13397295373722568
8.209999999999926,0.13639518220966146
8.309999999999924,0.13907984884586036
8.399999999999922,0.14148903703605722
8.48999999999992,0.14388839262106315
8.589999999999918,0.14653895805501657
8.679999999999916,0.1489100761099485
8.779999999999914,0.15152925624543
8.869999999999912,0.15387231295243653
8.95999999999991,0.15619950510846717
9.059999999999908,0.15876543451119549
9.149999999999906,0.1610553211017918
9.249999999999904,0.16357866934338938
9.339999999999902,0.16583439535190525
9.4299999999999,0.1680771433661769
9.529999999999898,0.1705564857215653
9.619999999999896,0.17277566346640688
9.709999999999894,0.17498256979435337
9.809999999999892,0.1774190300909989
9.89999999999989,0.17959693431302087
9.999999999999888,0.1820004694590822
10.089999999999886,0.18415135670594807
10.179999999999884,0.18629217772299472
10.279999999999882,0.18865861127051473
10.36999999999988,0.1907767850970964
10.469999999999878,0.1931185754843189
10.559999999999876,0.19521555919525663
10.649999999999874,0.1973016849492832
10.749999999999872,0.19960563688725336
10.83999999999987,0.20166749599045408
10.939999999999868,0.20394450581825752
11.029999999999866,0.20598017537424285
11.119999999999864,0.20800071309120788
11.219999999999862,0.2102290777443155
11.30999999999986,0.21221993143362977
11.409999999999858,0.2144156041651007
11.499999999999856,0.2163769124375725
11.589999999999854,0.21832454737184606
11.689999999999852,0.2204736913460079
11.77999999999985,0.22239479169516127
11.869999999999848,0.22430313224374218
11.939999999999852,0.22577652095639006
11.984999999999859,0.2267183381222098
12.034999999999867,0.22775960683124274
12.079999999999874,0.22869211537068967
12.124999999999881,0.22962043010435054
12.174999999999889,0.23064689415904785
12.219999999999896,0.23156617769563248
12.269999999999904,0.23258230258215445
12.31499999999991,0.23349246658271788
12.359999999999918,0.2343984825740658
12.409999999999926,0.23540049282607903
12.454999999999933,0.23629802197013486
12.50499999999994,0.23729063673605333
12.549999999999947,0.23817999734537737
12.594999999999954,0.23906585535679975
12.644999999999962,0.2400460745910084
12.68999999999997,0.24092442754347346
12.739999999999977,0.24189612941436697
12.784999999999984,0.2427668352392101
12.829999999999991,0.24363397432534498
12.879999999999999,0.24459336652209074
12.925000000000006,0.24545325799658343
12.975000000000014,0.2464049037538717
13.020000000000021,0.24725786299399163
13.065000000000028,0.24810743106409391
13.115000000000036,0.24904732160144621
13.160000000000043,0.2498895300888185
13.20500000000005,0.25072828369890776
13.255000000000058,0.25165621441456315
13.300000000000065,0.25248765926222366
13.350000000000072,0.253407381595906
13.39500000000008,0.2542314738605451
13.440000000000087,0.2550522099456328
13.490000000000094,0.2559602601237946
13.535000000000101,0.25677403517370584
13.58500000000011,0.2576745243554714
13.630000000000116,0.25848182479288906
13.675000000000123,0.2592861932168554
13.725000000000131,0.2601766180737718
13.770000000000138,0.2609749540468503
13.820000000000146,0.2618587658656831
13.865000000000153,0.26265129535974113
13.91000000000016,0.2634408767470958
13.960000000000168,0.2643145337064545
14.005000000000175,0.2650974522909529
14.055000000000183,0.26596371411945785
14.10000000000019,0.26674019648135583
14.145000000000197,0.26751376862231474
14.195000000000205,0.26836988749590024
14.240000000000212,0.2691373564814773
14.285000000000219,0.26990193917473987
14.335000000000226,0.27074804672231373
14.380000000000233,0.2715064453855669
14.430000000000241,0.2723453598380705
14.475000000000248,0.27309690434966616
14.520000000000255,0.2738453225922743
14.570000000000263,0.2746732601142623
14.61500000000027,0.2754152069396548
14.665000000000278,0.276236101123613
14.710000000000285,0.2769717198620403
14.755000000000292,0.2777044626836505
14.8050000000003,0.2785150461448185
14.850000000000307,0.2792415520886813
14.900000000000315,0.28004540436606234
14.945000000000322,0.2807661145099575
14.990000000000329,0.2814839875021386
15.040000000000337,0.28227841601323006
15.085000000000344,0.282990562677852
15.135000000000352,0.2837784597527016
15.180000000000359,0.28448459204098
15.225000000000366,0.28518798617655966
15.275000000000373,0.28596625451200924
15.32000000000038,0.28666391148802384
15.370000000000388,0.2874358501565838
15.415000000000395,0.28812769119889975
15.460000000000402,0.2888168132336322
15.51000000000041,0.28957940299121426
15.555000000000417,0.29026290323170956
15.600000000000424,0.29094369384880886
15.650000000000432,0.2916969466601632
15.695000000000439,0.2923719786641505
15.745000000000447,0.29311885317812064
15.790000000000454,0.2937882580464932
15.835000000000461,0.29445510176573353
15.885000000000469,0.2951930493751256
15.930000000000476,0.2958544701484534
15.980000000000484,0.2965861438417037
16.02500000000048,0.29724182569642854
16.070000000000473,0.29789475811996513
16.120000000000463,0.2986171441751626
16.165000000000454,0.29926470641869285
16.215000000000444,0.2999813166960131
16.260000000000435,0.30062365713573996
16.305000000000426,0.3012637010763411
16.355000000000416,0.3019721115512107
16.400000000000407,0.30260737279210315
16.450000000000397,0.3033106348892696
16.49500000000039,0.30394108140345577
16.54000000000038,0.30456910909822565
16.59000000000037,0.3052639858488169
16.63500000000036,0.30588678128628083
16.68500000000035,0.30657588842097494
16.73000000000034,0.30719366288675803
16.775000000000333,0.3078091870780136
16.825000000000323,0.3084903970782138
16.870000000000314,0.30910130396353647
16.915000000000305,0.30971000790825964
16.965000000000295,0.31038366867592726
17.010000000000286,0.31098738800111875
17.060000000000276,0.31165546106580394
17.105000000000267,0.3122537406762029
17.150000000000258,0.3128493248226949
17.200000000000248,0.3135078460122004
17.24500000000024,0.31409700874369006
17.29500000000023,0.31474635126299244
17.34000000000022,0.31532562660152647
17.38500000000021,0.3158997392014793
17.4350000000002,0.31653353703707104
17.480000000000192,0.31709900954858633
17.530000000000182,0.31772053939778855
17.575000000000173,0.318275066756716
17.620000000000164,0.3188260855614348
17.670000000000154,0.3194337391865125
17.715000000000146,0.3199748235792502
17.765000000000136,0.3205665933761788
17.810000000000127,0.32108982466666075
17.855000000000118,0.3216046336166568
17.905000000000108,0.3221672474194538
17.9500000000001,0.32266617145102167
17.99500000000009,0.323159093931058
18.04500000000008,0.32370058049283224
18.09000000000007,0.32418276389462053
18.14000000000006,0.32471345320323436
18.185000000000052,0.3251866264502278
18.230000000000043,0.3256579339336135
18.280000000000033,0.32618115456543906
18.325000000000024,0.32665751608208027
18.35750000000003,0.32700736038067785
18.38000000000004,0.3272524219731642
18.402500000000053,0.327499533859357
18.427500000000066,0.32777622331503253
18.450000000000077,0.32802683513783676
18.500000000000068,0.32858776481444574
18.54500000000006,0.3290949474716782
18.59000000000005,0.32960127834766795
18.64000000000004,0.3301603883297024
18.68500000000003,0.3306575284801879
18.77000000000004,0.33157163538199796
18.860000000000053,0.33250425788738985
18.950000000000067,0.33340366591953563
19.050000000000082,0.3343726810631102
19.12500000000009,0.3350843317562742
19.17500000000008,0.3355533497587432
19.22000000000007,0.3359735013985457
19.26500000000006,0.3363924149381575
19.31500000000005,0.3368560731651306
19.360000000000042,0.33727517952348557
19.38750000000005,0.33753457043375523
19.412500000000062,0.3377737474316853
19.435000000000073,0.3379920332213053
19.460000000000086,0.3382373492095858
19.482500000000098,0.3384599938139996
19.50500000000011,0.3386838727461916
19.5550000000001,0.3391835702125699
19.60000000000009,0.33963357280988793
19.64000000000009,0.34003308647279706
19.6625000000001,0.34025762249764174
19.685000000000112,0.3404819968823376
19.710000000000125,0.34073106127218256
19.732500000000137,0.34095496799829167
19.75750000000015,0.34120353367919604
19.78000000000016,0.34142694727914324
19.802500000000173,0.3416497646641321
19.827500000000185,0.34189668733452055
19.860000000000188,0.34221649104689555
19.910000000000178,0.3427052928704388
19.95500000000017,0.3431410561364554
20.00000000000016,0.3435726326131392
20.05000000000015,0.34404703853989743
20.09500000000014,0.34446890754260107
20.140000000000132,0.34488608859101677
20.190000000000122,0.3453449364772234
20.235000000000113,0.3457540088672251
20.285000000000103,0.3462043483569553
20.330000000000094,0.3466066942388361
20.375000000000085,0.3470068611596137
20.425000000000075,0.3474500284125259
20.470000000000066,0.3478480465679286
20.497500000000077,0.3480912535135983
20.52000000000009,0.3482909061339592
20.5425000000001,0.3484913992797407
20.567500000000113,0.3487154735501916
20.590000000000124,0.3489184554836171
20.615000000000137,0.34914541855375575
20.63750000000015,0.3493508045415563
20.66000000000016,0.3495570454114744
20.685000000000173,0.3497868491761809
20.707500000000184,0.3499939303230755
20.732500000000197,0.3502241884381138
20.75500000000021,0.3504311402824207
20.77750000000022,0.3506377349078332
20.820000000000217,0.35102686774731556
20.865000000000208,0.3514363143474999
20.915000000000198,0.35188724667422366
20.96000000000019,0.35228914294350516
21.00500000000018,0.35268699964525085
21.05500000000017,0.35312423337853527
21.10000000000016,0.35351353432950944
21.145000000000152,0.35389829626171593
21.195000000000142,0.35432113420935585
21.240000000000133,0.35469795000742665
21.290000000000123,0.35511335870261146
21.335000000000115,0.3554848790309467
21.380000000000106,0.35585449589910634
21.430000000000096,0.35626341774333503
21.475000000000087,0.35663010417042307
21.525000000000077,0.3570368006451364
21.570000000000068,0.35740303391093403
21.61500000000006,0.35777002679700415
21.66500000000005,0.35817928686960876
21.71000000000004,0.35854925446718533
21.76000000000003,0.35896196461551944
21.80500000000002,0.35933427723609285
21.850000000000012,0.3597064974634396
21.900000000000002,0.36011840831486736
21.944999999999993,0.3604871321408886
21.994999999999983,0.36089389529959615
22.039999999999974,0.3612571483600635
22.084999999999965,0.3616177946349086
22.134999999999955,0.36201552308339696
22.179999999999946,0.3623709565542812
22.229999999999936,0.3627630722995039
22.274999999999928,0.3631138454312165
22.31999999999992,0.36346280626067634
22.36999999999991,0.3638486749695668
22.4149999999999,0.36419434167917186
22.45999999999989,0.36453862903946843
22.50999999999988,0.364919800292173
22.554999999999872,0.36526181455969425
22.604999999999862,0.3656410462321344
22.649999999999853,0.36598233224502313
22.694999999999844,0.3663243254017102
22.744999999999834,0.36670648495094677
22.789999999999825,0.3670518229848728
22.839999999999815,0.3674363709662867
22.884999999999806,0.3677825637739523
22.929999999999797,0.3681282364565723
22.979999999999787,0.36851120404689924
23.02499999999978,0.3688544500128667
23.07499999999977,0.3692339576511104
23.11999999999976,0.36957360231329683
23.16499999999975,0.36991135521421536
23.21499999999974,0.3702846999163227
23.25999999999973,0.3706192713768291
23.30999999999972,0.3709896496716428
23.354999999999713,0.3713217132732076
23.399999999999704,0.37165264199972375
23.449999999999694,0.37201919293344626
23.494999999999685,0.3723480989505678
23.539999999999676,0.3726759387495719
23.589999999999666,0.3730392132631074
23.634999999999657,0.3733654567169999
23.684999999999647,0.3737272474656974
23.729999999999638,0.3740523889914309
23.77499999999963,0.37437709607619885
23.82499999999962,0.374737407279009
23.86999999999961,0.37506126589427113
23.9199999999996,0.37542065096604843
23.96499999999959,0.3757437164625105
24.009999999999582,0.37606639575722184
24.059999999999572,0.3764243968554727
24.104999999999563,0.3767460720716634
24.154999999999553,0.37710284796620724
24.199999999999545,0.3774232965790212
24.244999999999536,0.3777430839943117
24.294999999999526,0.3780975487471819
24.339999999999517,0.37841567347873517
24.389999999999507,0.3787681300924935
24.434999999999498,0.37908434685055903
24.47999999999949,0.3793996705689702
24.52999999999948,0.37974862333790377
24.57499999999947,0.38006147698819154
24.62499999999946,0.38040770257663004
24.66999999999945,0.380718140878951
24.714999999999442,0.3810275344909479
24.764999999999432,0.3813701345884168
24.809999999999423,0.38167752407055616
24.854999999999414,0.38198413381712065
24.904999999999404,0.38232399737780487
24.949999999999395,0.3826292242643674
24.999999999999385,0.38296765995582704
25.044999999999376,0.38327171992361186
25.089999999999367,0.38357543615016765
25.139999999999358,0.38391246780158017
25.18499999999935,0.3842153365480276
25.23499999999934,0.3845512366528034
25.27999999999933,0.3848529625622442
25.32499999999932,0.38515411195422905
25.37499999999931,0.38548801163120683
25.419999999999302,0.3857879098475663
25.469999999999292,0.3861204148429991
25.514999999999283,0.38641898861965723
25.559999999999274,0.3867168023640368
25.609999999999264,0.38704682112864836
25.654999999999255,0.387342982643113
25.704999999999245,0.387670866154285
25.749999999999236,0.38796483573070006
25.794999999999227,0.38825775059869766
25.844999999999217,0.3885822210167395
25.88999999999921,0.3888732018148166
25.9349999999992,0.3891632505852048
25.98499999999919,0.38948443591602944
26.02999999999918,0.3897724901818308
26.07999999999917,0.3900914636322609
26.12499999999916,0.3903775896850876
26.169999999999153,0.39066283460557394
26.219999999999143,0.3909788231971331
26.264999999999134,0.3912624224882527
26.314999999999124,0.3915767167838926
26.359999999999115,0.39185888049793083
26.404999999999106,0.3921404625772043
26.454999999999096,0.3924527488394112
26.499999999999087,0.39273328297782767
26.549999999999077,0.3930444468260433
26.594999999999068,0.3933240073085666
26.63999999999906,0.3936030833007993
26.68999999999905,0.39391256050613277
26.73499999999904,0.3941904039585611
26.78499999999903,0.394498284156135
26.82999999999902,0.39477452057030576
26.874999999999012,0.3950499136734643
26.924999999999002,0.3953549074360203
26.969999999998993,0.3956285469020324
27.019999999998983,0.3959316361050581
27.064999999998975,0.3962035801497307
27.109999999998966,0.39647475724136516
27.159999999998956,0.39677520015820467
27.204999999998947,0.3970448625522237
27.249999999998938,0.39731367299211284
27.299999999998928,0.39761127298083154
27.34499999999892,0.39787809093721327
27.39499999999891,0.39817344445538655
27.4399999999989,0.3984383052571802
27.48499999999889,0.3987022199155179
27.53499999999888,0.39899436327980586
27.579999999998872,0.3992562328811071
27.629999999998862,0.3995459851154628
27.674999999998853,0.39980569212047723
27.719999999998844,0.4000647119732069
27.769999999998834,0.400352162694596
27.814999999998825,0.4006106266195731
27.864999999998815,0.4008974504076384
27.909999999998806,0.40115520747675815
27.954999999998797,0.4014125425984989
28.004999999998788,0.4016979164654466
28.04999999999878,0.4019540903874885
28.09999999999877,0.4022377351714666
28.14499999999876,0.402492060324103
28.18999999999875,0.40274547140397887
28.23999999999874,0.40302600966441443
28.284999999998732,0.4032776118461851
28.334999999998722,0.4035560842861651
28.379999999998713,0.4038057387307767
28.424999999998704,0.4040544130377667
28.474999999998694,0.4043295271064009
28.519999999998685,0.40457602355608907
28.564999999998676,0.40482160770381304
28.614999999998666,0.4050937089855387
28.659999999998657,0.40533840834493323
28.709999999998647,0.4056105603002502
28.75499999999864,0.4058556968349054
28.79999999999863,0.4061008332725101
28.84999999999862,0.4063730151377649
28.89499999999861,0.406617569443755
28.9449999999986,0.40688863083623694
28.98999999999859,0.40713181040144725
29.034999999998583,0.4073741428620203
29.084999999998573,0.40764250898575777
29.129999999998564,0.40788320667836564
29.179999999998554,0.4081497306946191
29.224999999998545,0.40838878691115504
29.269999999998536,0.408627114701936
29.319999999998526,0.4088910173738999
29.364999999998517,0.4091277949700689
29.414999999998507,0.40939028247177073
29.459999999998498,0.40962620765947616
29.50499999999849,0.40986204576268315
29.55499999999848,0.41012406784017447
29.59999999999847,0.41035990316358884
29.64499999999846,0.41059556326424185
29.69499999999845,0.41085714327411654
29.739999999998442,0.4110921962349782
29.789999999998432,0.4113528299695659
29.834999999998423,0.4115869451871654
29.879999999998414,0.4118205633217408
29.929999999998405,0.41207963202858494
29.974999999998396,0.4123122489555828
30.024999999998386,0.4125700342433922
30.069999999998377,0.4128015401382006
30.114999999998368,0.41303256791749043
30.164999999998358,0.4132886278016127
30.20999999999835,0.4135185209611785
30.25999999999834,0.4137733737587259
30.30499999999833,0.4140022523045202
30.34999999999832,0.4142307004747334
30.39999999999831,0.4144840556078486
30.444999999998302,0.414711681217332
30.494999999998292,0.41496420883502
30.539999999998283,0.41519117213373635
30.584999999998274,0.41541783073030064
30.634999999998264,0.41566932170666626
30.679999999998255,0.41589532962136605
30.729999999998245,0.41614602733601497
30.774999999998236,0.4163712330749538
30.819999999998227,0.41659604669943817
30.869999999998218,0.41684537142437433
30.91499999999821,0.417069348344802
30.9599999999982,0.41729294700985875
31.00999999999819,0.41754096482225883
31.05499999999818,0.4177637756740777
31.10499999999817,0.4180109163114239
31.149999999998162,0.4182329400833033
31.194999999998153,0.41845458782204376
31.244999999998143,0.41870043239735966
31.289999999998134,0.4189213283234693
31.339999999998124,0.4191664018599656
31.384999999998115,0.41938664644234175
31.429999999998106,0.4196066291920444
31.479999999998096,0.4198507899936262
31.524999999998087,0.420070299276518
